2.0023550987243652, 0, 0.015, 0.022, 0.004, 0.005, 0.012, 0.011, 0.013, 0.003, 0.035, 0.031, 0.093, 0.089, 0.113, 0.168, 0.11, 0.155, 0.093, 0.126, 0.051, 0.043, 0.034, 0.0, 0.018, 0.003, 0.0, 0.01, 0.0, 0.023, 0.005, 0.06, 0.0, 0.053, 0.0, 0.072, 0.004, 0.069, 0.0, 0.045, 0.002, 0.043, 0.004, 0.045, 0.016, 0.049, 0.006, 0.027, 0.004, 0.0, 0.0, 0.003, 0.0, 0.001, 0.003, 0.008, 0.007, 0.012, 0.008, 0.001, 0.01, 0.055, 0.018, 0.085, 0.019, 0.115, 0.013, 0.085, 0.003, 0.048, 0.0, 0.009, 0.0, 0.01, 0.0, 0.031, 0.0, 0.022, 0.0, 0.036, 0.002, 0.013, 0.008, 0.015, 0.005, 0.041, 0.007, 0.028, 0.007, 0.047, 0.001, 0.029, 0.0, 0.006, 0.002, 0.025, 0.0, 0.0, 0.0, 0.053, 0.0, 0.047, 0.003, 0.032
8.085675239562988, 1, 0.008, 0.039, 0.0, 0.0, 0.0, 0.0, 0.0, 0.001, 0.002, 0.013, 0.0, 0.021, 0.0, 0.017, 0.0, 0.02, 0.0, 0.019, 0.0, 0.015, 0.0, 0.0, 0.0, 0.013, 0.0, 0.002, 0.0, 0.031, 0.001, 0.033, 0.015, 0.035, 0.012, 0.042, 0.003, 0.022, 0.0, 0.024, 0.0, 0.018, 0.0, 0.0, 0.0, 0.01, 0.0, 0.0, 0.0, 0.006, 0.0, 0.005, 0.0, 0.0, 0.0, 0.003, 0.0, 0.013, 0.0, 0.003, 0.0, 0.002, 0.0, 0.0, 0.0, 0.0, 0.005, 0.032, 0.0, 0.043, 0.002, 0.045, 0.005, 0.056, 0.001, 0.036, 0.006, 0.021, 0.002, 0.02, 0.005, 0.026, 0.0, 0.023, 0.004, 0.003, 0.007, 0.029, 0.0, 0.0, 0.001, 0.003, 0.0, 0.0, 0.0, 0.0, 0.0, 0.005, 0.0, 0.017, 0.001, 0.013, 0.001, 0.031, 0.002, 0.024, 0.0, 0.017, 0.0, 0.033, 0.0, 0.029, 0.0, 0.036, 0.006, 0.06, 0.006, 0.064, 0.007, 0.078, 0.002, 0.068, 0.0, 0.015, 0.0, 0.043, 0.005, 0.038, 0.058, 0.139, 0.094, 0.267, 0.18, 0.447, 0.286, 0.55, 0.915, 1.0, 1.0, 1.0, 1.0, 1.0, 1.0, 1.0, 0.879, 0.8, 0.628, 0.471, 0.392, 0.314, 0.337, 0.254, 0.245, 0.172, 0.22, 0.182, 0.147, 0.131, 0.119, 0.119, 0.197, 0.269, 0.644, 0.746, 1.0, 1.0, 0.989, 1.0, 0.887, 0.886, 0.613, 0.554, 0.379, 0.254, 0.301, 0.107, 0.16, 0.073, 0.128, 0.045, 0.078, 0.052, 0.068, 0.051, 0.039, 0.036, 0.02, 0.0, 0.016, 0.0, 0.008, 0.0, 0.0, 0.001, 0.0, 0.002, 0.003, 0.0, 0.0, 0.0, 0.004, 0.013, 0.003, 0.008, 0.002, 0.009, 0.001, 0.004, 0.002, 0.004, 0.003, 0.0, 0.0, 0.0, 0.001, 0.002, 0.0, 0.0, 0.003, 0.0, 0.007, 0.013, 0.002, 0.008, 0.004, 0.028, 0.002, 0.031, 0.001, 0.038, 0.007, 0.056, 0.01, 0.056, 0.029, 0.082, 0.027, 0.071, 0.024, 0.065, 0.013, 0.026, 0.008, 0.012, 0.0, 0.004, 0.001, 0.0, 0.0, 0.0, 0.0, 0.0, 0.0, 0.001, 0.0, 0.0, 0.0, 0.0, 0.005, 0.024, 0.008, 0.024, 0.018, 0.033, 0.016, 0.039, 0.013, 0.019, 0.015, 0.022, 0.009, 0.015, 0.008, 0.014, 0.006, 0.006, 0.0, 0.009, 0.0, 0.007, 0.0, 0.0, 0.0, 0.001, 0.005, 0.0, 0.009, 0.0, 0.011, 0.034, 0.016, 0.028, 0.011, 0.019, 0.021, 0.005, 0.009, 0.0, 0.007, 0.0, 0.007, 0.003, 0.0, 0.0, 0.0, 0.0
10.110789775848389, 0, 0.0, 0.0, 0.008, 0.022, 0.01, 0.03, 0.004, 0.031, 0.009, 0.07, 0.008, 0.046, 0.008, 0.026, 0.011, 0.004, 0.005, 0.0, 0.009, 0.006, 0.005, 0.019, 0.006, 0.031, 0.003, 0.052, 0.004, 0.054, 0.0, 0.039, 0.001, 0.058, 0.008, 0.06, 0.001, 0.031, 0.001, 0.018, 0.0, 0.0, 0.0, 0.009, 0.0, 0.02, 0.0, 0.034, 0.0, 0.061, 0.0, 0.042, 0.01, 0.055, 0.005, 0.032, 0.007, 0.07, 0.012, 0.094, 0.014, 0.115, 0.006, 0.098, 0.016, 0.084, 0.0, 0.033, 0.0, 0.017, 0.0, 0.0, 0.0, 0.013, 0.0, 0.0, 0.0, 0.019, 0.003, 0.019, 0.021, 0.024, 0.017, 0.039, 0.023, 0.029, 0.013, 0.045, 0.006, 0.03, 0.014, 0.077, 0.006, 0.069, 0.0, 0.066, 0.0, 0.031, 0.018, 0.01, 0.015, 0.0, 0.028, 0.013
16.161300659179688, 2, 0.036, 0.005, 0.012, 0.003, 0.011, 0.037, 0.005, 0.029, 0.0, 0.011, 0.004, 0.005, 0.0, 0.0, 0.0, 0.0, 0.0, 0.0, 0.0, 0.0, 0.0, 0.017, 0.003, 0.038, 0.005, 0.07, 0.019, 0.094, 0.016, 0.07, 0.017, 0.082, 0.017, 0.07, 0.016, 0.096, 0.005, 0.078, 0.0, 0.052, 0.0, 0.016, 0.0, 0.021, 0.0, 0.026, 0.007, 0.08, 0.012, 0.071, 0.022, 0.078, 0.018, 0.068, 0.01, 0.044, 0.011, 0.05, 0.0, 0.04, 0.0, 0.039, 0.007, 0.065, 0.004, 0.06, 0.006, 0.068, 0.012, 0.03, 0.02, 0.004, 0.016, 0.006, 0.014, 0.0, 0.004, 0.0, 0.004, 0.016, 0.0, 0.015, 0.012, 0.042, 0.006, 0.036, 0.003, 0.024, 0.0, 0.001, 0.0, 0.006, 0.0, 0.007, 0.0, 0.006, 0.0, 0.0, 0.0, 0.0, 0.0, 0.013, 0.013, 0.022, 0.037, 0.076, 0.044, 0.094, 0.049, 0.098, 0.05, 0.142, 0.032, 0.085, 0.011, 0.057, 0.003, 0.007, 0.0, 0.009, 0.005, 0.021, 0.009, 0.007, 0.019, 0.05, 0.025, 0.019, 0.209, 0.63, 0.546, 1.0, 1.0, 1.0, 1.0, 1.0, 1.0, 0.951, 0.923, 0.805, 0.834, 0.579, 0.635, 0.573, 0.535, 0.471, 0.57, 0.495, 0.615, 0.517, 0.639, 0.553, 0.637, 0.588, 0.497, 0.474, 0.481, 0.516, 0.447, 0.541, 0.496, 0.623, 0.559, 0.656, 0.644, 0.625, 0.653, 0.562, 0.449, 0.275, 0.364, 0.137, 0.238, 0.017, 0.27, 0.022, 0.253, 0.008, 0.197, 0.001, 0.121, 0.0, 0.062, 0.0, 0.041, 0.001, 0.048, 0.026, 0.054, 0.049, 0.045, 0.053, 0.052, 0.106, 0.043, 0.043, 0.023, 0.02, 0.007, 0.0, 0.0, 0.0, 0.0, 0.0, 0.007, 0.0, 0.012, 0.013, 0.012, 0.03, 0.014, 0.057, 0.014, 0.093, 0.009, 0.099, 0.012, 0.119, 0.023, 0.111, 0.018, 0.117, 0.008, 0.101, 0.012, 0.116, 0.0, 0.07, 0.0, 0.048, 0.0, 0.017, 0.005, 0.0, 0.002, 0.02, 0.003, 0.046, 0.0, 0.03, 0.001, 0.034, 0.001, 0.043, 0.008, 0.0, 0.007, 0.01, 0.006, 0.0, 0.005, 0.006, 0.005, 0.001, 0.0, 0.0, 0.0, 0.008, 0.0, 0.012, 0.0, 0.002, 0.003, 0.0, 0.005, 0.012, 0.0, 0.004, 0.0, 0.001, 0.0, 0.0, 0.0, 0.0, 0.0, 0.022, 0.0, 0.027, 0.0, 0.044, 0.0, 0.05, 0.01, 0.064, 0.009, 0.058, 0.019, 0.067, 0.009, 0.044, 0.005, 0.039, 0.01, 0.052, 0.008, 0.038, 0.006, 0.043, 0.008, 0.014, 0.0, 0.055
18.191272735595703, 0, 0.0, 0.059, 0.0, 0.074, 0.001, 0.067, 0.0, 0.011, 0.0, 0.0, 0.0, 0.0, 0.0, 0.005, 0.001, 0.023, 0.0, 0.033, 0.014, 0.059, 0.007, 0.072, 0.0, 0.067, 0.006, 0.048, 0.0, 0.036, 0.0, 0.035, 0.0, 0.024, 0.0, 0.036, 0.0, 0.053, 0.0, 0.029, 0.0, 0.034, 0.0, 0.019, 0.0, 0.002, 0.0, 0.014, 0.002, 0.013, 0.006, 0.017, 0.006, 0.035, 0.004, 0.033, 0.0, 0.022, 0.006, 0.041, 0.0, 0.032, 0.007, 0.035, 0.008, 0.013, 0.004, 0.0, 0.0, 0.003, 0.0, 0.002, 0.0, 0.01, 0.0, 0.0, 0.0, 0.003, 0.0, 0.02, 0.0, 0.018, 0.0, 0.023, 0.0, 0.017, 0.0, 0.007, 0.0, 0.029, 0.0, 0.03, 0.0, 0.033, 0.0, 0.034, 0.0, 0.017, 0.0, 0.033, 0.0, 0.037, 0.0, 0.034
24.312294006347656, 3, 0.0, 0.036, 0.0, 0.01, 0.0, 0.019, 0.0, 0.001, 0.0, 0.0, 0.0, 0.015, 0.0, 0.016, 0.0, 0.031, 0.0, 0.032, 0.0, 0.027, 0.0, 0.026, 0.0, 0.013, 0.0, 0.017, 0.0, 0.0, 0.0, 0.007, 0.0, 0.008, 0.0, 0.0, 0.004, 0.011, 0.002, 0.006, 0.001, 0.002, 0.003, 0.017, 0.009, 0.0, 0.003, 0.01, 0.009, 0.0, 0.006, 0.0, 0.0, 0.009, 0.002, 0.004, 0.0, 0.017, 0.0, 0.008, 0.0, 0.04, 0.0, 0.028, 0.0, 0.024, 0.0, 0.009, 0.0, 0.0, 0.0, 0.0, 0.0, 0.007, 0.0, 0.025, 0.0, 0.033, 0.0, 0.052, 0.0, 0.066, 0.0, 0.051, 0.0, 0.04, 0.0, 0.008, 0.0, 0.0, 0.0, 0.033, 0.0, 0.015, 0.0, 0.021, 0.0, 0.006, 0.0, 0.0, 0.002, 0.025, 0.003, 0.065, 0.006, 0.061, 0.014, 0.062, 0.014, 0.046, 0.012, 0.023, 0.001, 0.003, 0.0, 0.0, 0.0, 0.0, 0.0, 0.01, 0.006, 0.011, 0.0, 0.025, 0.005, 0.031, 0.001, 0.029, 0.006, 0.055, 0.013, 0.052, 0.072, 0.15, 0.282, 0.216, 0.712, 0.293, 1.0, 0.516, 1.0, 0.503, 0.829, 0.446, 0.77, 0.322, 0.79, 0.206, 0.734, 0.232, 0.699, 0.212, 0.814, 0.247, 0.935, 0.479, 0.926, 0.516, 0.939, 0.74, 0.773, 0.749, 0.793, 0.772, 0.845, 1.0, 0.769, 1.0, 0.541, 0.947, 0.398, 0.798, 0.154, 0.465, 0.11, 0.248, 0.113, 0.085, 0.053, 0.013, 0.062, 0.0, 0.06, 0.011, 0.017, 0.007, 0.0, 0.005, 0.0, 0.0, 0.0, 0.0, 0.006, 0.0, 0.004, 0.01, 0.011, 0.0, 0.023, 0.009, 0.023, 0.02, 0.005, 0.01, 0.0, 0.008, 0.0, 0.0, 0.0, 0.004, 0.0, 0.0, 0.0, 0.012, 0.006, 0.023, 0.0, 0.007, 0.0, 0.014, 0.0, 0.0, 0.0, 0.0, 0.004, 0.004, 0.01, 0.0, 0.016, 0.0, 0.016, 0.032, 0.0, 0.043, 0.0, 0.035, 0.0, 0.045, 0.0, 0.034, 0.0, 0.016, 0.0, 0.01, 0.0, 0.0, 0.0, 0.0, 0.0, 0.0, 0.0, 0.001, 0.0, 0.005, 0.0, 0.006, 0.0, 0.008, 0.004, 0.009, 0.0, 0.0, 0.0, 0.0, 0.0, 0.0, 0.0, 0.0, 0.0, 0.003, 0.0, 0.0, 0.0, 0.007, 0.0, 0.002, 0.0, 0.005, 0.0, 0.0, 0.0, 0.002, 0.0, 0.015, 0.006, 0.003, 0.001, 0.0, 0.0, 0.0, 0.015, 0.0, 0.007, 0.0, 0.006, 0.0, 0.008, 0.0, 0.0, 0.006, 0.004, 0.004, 0.0, 0.01, 0.0, 0.012, 0.001, 0.008
26.352095127105713, 0, 0.004, 0.0, 0.001, 0.0, 0.0, 0.0, 0.0, 0.0, 0.0, 0.004, 0.0, 0.001, 0.0, 0.001, 0.0, 0.003, 0.0, 0.0, 0.0, 0.004, 0.0, 0.002, 0.0, 0.004, 0.0, 0.0, 0.0, 0.002, 0.0, 0.004, 0.0, 0.0, 0.0, 0.0, 0.0, 0.0, 0.0, 0.0, 0.0, 0.0, 0.0, 0.0, 0.0, 0.0, 0.0, 0.0, 0.0, 0.0, 0.0, 0.0, 0.0, 0.0, 0.0, 0.0, 0.0, 0.0, 0.0, 0.0, 0.0, 0.0, 0.002, 0.0, 0.001, 0.0, 0.0, 0.001, 0.001, 0.008, 0.002, 0.004, 0.0, 0.0, 0.0, 0.0, 0.0, 0.0, 0.0, 0.0, 0.0, 0.005, 0.0, 0.005, 0.002, 0.015, 0.002, 0.0, 0.01, 0.0, 0.0, 0.0, 0.0, 0.0, 0.0, 0.0, 0.0, 0.0, 0.0, 0.007, 0.0, 0.009, 0.0, 0.0
32.38243055343628, 4, 0.0, 0.004, 0.0, 0.001, 0.001, 0.0, 0.0, 0.014, 0.002, 0.0, 0.0, 0.0, 0.0, 0.004, 0.0, 0.003, 0.0, 0.01, 0.0, 0.011, 0.0, 0.0, 0.0, 0.0, 0.0, 0.0, 0.0, 0.0, 0.0, 0.0, 0.0, 0.0, 0.0, 0.0, 0.0, 0.0, 0.0, 0.0, 0.0, 0.0, 0.0, 0.0, 0.0, 0.002, 0.0, 0.0, 0.0, 0.005, 0.0, 0.0, 0.0, 0.0, 0.0, 0.0, 0.0, 0.0, 0.0, 0.0, 0.0, 0.01, 0.0, 0.016, 0.0, 0.016, 0.0, 0.015, 0.0, 0.0, 0.0, 0.005, 0.0, 0.0, 0.0, 0.0, 0.0, 0.0, 0.0, 0.0, 0.0, 0.0, 0.0, 0.0, 0.004, 0.0, 0.002, 0.0, 0.0, 0.0, 0.0, 0.0, 0.0, 0.0, 0.0, 0.0, 0.0, 0.0, 0.0, 0.0, 0.0, 0.0, 0.0, 0.0, 0.0, 0.009, 0.0, 0.013, 0.001, 0.012, 0.0, 0.007, 0.001, 0.0, 0.0, 0.001, 0.0, 0.0, 0.0, 0.0, 0.0, 0.003, 0.0, 0.0, 0.005, 0.034, 0.005, 0.042, 0.002, 0.043, 0.006, 0.053, 0.007, 0.052, 0.789, 0.884, 1.0, 1.0, 1.0, 1.0, 1.0, 1.0, 0.824, 0.776, 0.665, 0.691, 0.625, 0.924, 0.491, 0.806, 0.454, 1.0, 0.473, 0.87, 0.42, 0.836, 0.448, 0.739, 0.553, 0.637, 0.547, 0.524, 0.482, 0.403, 0.367, 0.418, 0.316, 0.343, 0.237, 0.271, 0.137, 0.174, 0.104, 0.079, 0.028, 0.067, 0.03, 0.043, 0.018, 0.032, 0.015, 0.032, 0.0, 0.043, 0.0, 0.037, 0.004, 0.037, 0.0, 0.024, 0.0, 0.0, 0.0, 0.0, 0.0, 0.0, 0.0, 0.001, 0.0, 0.005, 0.006, 0.004, 0.008, 0.0, 0.015, 0.004, 0.014, 0.005, 0.0, 0.013, 0.0, 0.001, 0.0, 0.005, 0.0, 0.0, 0.0, 0.0, 0.0, 0.0, 0.0, 0.0, 0.0, 0.0, 0.0, 0.0, 0.0, 0.0, 0.0, 0.0, 0.0, 0.0, 0.0, 0.0, 0.0, 0.0, 0.0, 0.003, 0.0, 0.007, 0.013, 0.009, 0.015, 0.0, 0.006, 0.0, 0.004, 0.0, 0.0, 0.0, 0.0, 0.0, 0.0, 0.004, 0.0, 0.005, 0.0, 0.004, 0.0, 0.002, 0.0, 0.0, 0.0, 0.0, 0.0, 0.0, 0.0, 0.0, 0.0, 0.0, 0.0, 0.0, 0.0, 0.0, 0.0, 0.0, 0.009, 0.008, 0.003, 0.01, 0.009, 0.01, 0.007, 0.004, 0.0, 0.0, 0.0, 0.0, 0.0, 0.0, 0.0, 0.0, 0.0, 0.0, 0.0, 0.0, 0.0, 0.003, 0.0, 0.004, 0.0, 0.0, 0.0, 0.0
34.420801639556885, 0, 0.0, 0.0, 0.0, 0.0, 0.0, 0.0, 0.0, 0.0, 0.0, 0.0, 0.0, 0.0, 0.0, 0.0, 0.0, 0.0, 0.0, 0.0, 0.003, 0.0, 0.006, 0.008, 0.003, 0.009, 0.007, 0.01, 0.0, 0.007, 0.0, 0.0, 0.0, 0.003, 0.0, 0.005, 0.0, 0.0, 0.0, 0.006, 0.0, 0.001, 0.0, 0.0, 0.0, 0.0, 0.0, 0.0, 0.0, 0.0, 0.0, 0.0, 0.0, 0.001, 0.0, 0.0, 0.0, 0.0, 0.0, 0.0, 0.0, 0.0, 0.0, 0.0, 0.0, 0.0, 0.0, 0.0, 0.0, 0.0, 0.0, 0.0, 0.0, 0.007, 0.0, 0.0, 0.0, 0.0, 0.0, 0.0, 0.0, 0.0, 0.0, 0.0, 0.0, 0.0, 0.0, 0.0, 0.0, 0.0, 0.0, 0.0, 0.0, 0.0, 0.0, 0.0, 0.0, 0.0, 0.0, 0.0, 0.0, 0.0, 0.0, 0.002
40.498719930648804, 5, 0.0, 0.009, 0.0, 0.006, 0.0, 0.001, 0.0, 0.001, 0.0, 0.0, 0.0, 0.002, 0.0, 0.0, 0.0, 0.0, 0.0, 0.0, 0.0, 0.0, 0.0, 0.0, 0.0, 0.0, 0.0, 0.0, 0.0, 0.0, 0.0, 0.0, 0.0, 0.0, 0.0, 0.0, 0.0, 0.0, 0.0, 0.0, 0.0, 0.0, 0.0, 0.0, 0.0, 0.001, 0.0, 0.0, 0.0, 0.0, 0.0, 0.0, 0.0, 0.0, 0.0, 0.0, 0.0, 0.0, 0.0, 0.0, 0.0, 0.0, 0.0, 0.0, 0.0, 0.0, 0.0, 0.0, 0.0, 0.0, 0.0, 0.008, 0.0, 0.009, 0.0, 0.0, 0.0, 0.0, 0.0, 0.0, 0.004, 0.0, 0.011, 0.0, 0.004, 0.001, 0.0, 0.0, 0.0, 0.006, 0.0, 0.004, 0.0, 0.002, 0.0, 0.0, 0.0, 0.0, 0.0, 0.0, 0.0, 0.0, 0.0, 0.0, 0.0, 0.007, 0.0, 0.0, 0.0, 0.0, 0.0, 0.0, 0.0, 0.0, 0.0, 0.0, 0.0, 0.0, 0.0, 0.0, 0.004, 0.0, 0.017, 0.0, 0.023, 0.0, 0.043, 0.029, 0.062, 0.065, 0.198, 0.162, 0.444, 0.19, 1.0, 0.435, 1.0, 0.574, 1.0, 0.79, 1.0, 0.882, 0.822, 0.847, 0.819, 0.818, 0.668, 0.772, 0.727, 0.769, 0.731, 0.833, 0.784, 1.0, 0.829, 0.873, 0.681, 0.684, 0.651, 0.699, 0.51, 0.566, 0.466, 0.613, 0.316, 0.714, 0.263, 0.632, 0.213, 0.537, 0.256, 0.586, 0.295, 0.362, 0.282, 0.233, 0.239, 0.178, 0.084, 0.065, 0.042, 0.043, 0.017, 0.05, 0.023, 0.04, 0.007, 0.023, 0.003, 0.0, 0.0, 0.0, 0.0, 0.018, 0.003, 0.024, 0.0, 0.046, 0.005, 0.064, 0.0, 0.036, 0.0, 0.029, 0.0, 0.0, 0.004, 0.043, 0.008, 0.065, 0.008, 0.066, 0.01, 0.048, 0.001, 0.034, 0.0, 0.005, 0.0, 0.006, 0.0, 0.0, 0.004, 0.001, 0.009, 0.0, 0.002, 0.003, 0.0, 0.0, 0.0, 0.0, 0.0, 0.0, 0.0, 0.0, 0.0, 0.0, 0.004, 0.02, 0.0, 0.016, 0.0, 0.023, 0.0, 0.019, 0.0, 0.011, 0.0, 0.008, 0.001, 0.003, 0.001, 0.01, 0.006, 0.0, 0.014, 0.012, 0.015, 0.006, 0.014, 0.004, 0.0, 0.0, 0.0, 0.005, 0.0, 0.0, 0.0, 0.0, 0.0, 0.002, 0.006, 0.0, 0.01, 0.0, 0.002, 0.022, 0.001, 0.017, 0.0, 0.018, 0.0, 0.004, 0.0, 0.0, 0.0, 0.026, 0.0, 0.022, 0.003, 0.033, 0.001, 0.03, 0.0, 0.012, 0.0, 0.011, 0.0, 0.0, 0.0, 0.0, 0.0, 0.0, 0.0, 0.0
42.53756856918335, 0, 0.0, 0.0, 0.0, 0.003, 0.0, 0.0, 0.0, 0.004, 0.0, 0.002, 0.0, 0.01, 0.0, 0.002, 0.0, 0.011, 0.0, 0.021, 0.0, 0.019, 0.0, 0.02, 0.0, 0.0, 0.0, 0.0, 0.0, 0.0, 0.0, 0.0, 0.0, 0.0, 0.0, 0.01, 0.0, 0.009, 0.0, 0.01, 0.0, 0.002, 0.0, 0.0, 0.0, 0.007, 0.0, 0.004, 0.0, 0.002, 0.0, 0.0, 0.0, 0.005, 0.001, 0.008, 0.0, 0.0, 0.008, 0.003, 0.0, 0.0, 0.0, 0.0, 0.0, 0.0, 0.0, 0.0, 0.0, 0.0, 0.0, 0.006, 0.0, 0.001, 0.0, 0.0, 0.0, 0.001, 0.0, 0.003, 0.0, 0.007, 0.0, 0.001, 0.0, 0.011, 0.0, 0.008, 0.0, 0.0, 0.0, 0.0, 0.0, 0.001, 0.0, 0.0, 0.0, 0.0, 0.0, 0.006, 0.0, 0.009, 0.0, 0.01
48.65354633331299, 1, 0.0, 0.01, 0.0, 0.015, 0.0, 0.007, 0.0, 0.005, 0.0, 0.003, 0.0, 0.0, 0.0, 0.0, 0.0, 0.009, 0.0, 0.0, 0.0, 0.0, 0.0, 0.0, 0.0, 0.0, 0.0, 0.0, 0.0, 0.0, 0.0, 0.0, 0.0, 0.002, 0.0, 0.007, 0.0, 0.01, 0.0, 0.03, 0.0, 0.02, 0.0, 0.022, 0.0, 0.003, 0.0, 0.0, 0.0, 0.003, 0.0, 0.0, 0.0, 0.0, 0.0, 0.0, 0.0, 0.0, 0.0, 0.016, 0.0, 0.022, 0.0, 0.029, 0.0, 0.018, 0.0, 0.002, 0.0, 0.0, 0.0, 0.0, 0.0, 0.003, 0.0, 0.014, 0.0, 0.009, 0.0, 0.005, 0.0, 0.004, 0.0, 0.0, 0.0, 0.0, 0.0, 0.004, 0.0, 0.0, 0.0, 0.0, 0.0, 0.0, 0.011, 0.022, 0.019, 0.02, 0.023, 0.021, 0.019, 0.012, 0.0, 0.0, 0.001, 0.0, 0.0, 0.0, 0.0, 0.0, 0.0, 0.003, 0.0, 0.004, 0.0, 0.0, 0.0, 0.005, 0.0, 0.007, 0.0, 0.009, 0.0, 0.017, 0.0, 0.0, 0.0, 0.026, 0.013, 0.061, 0.02, 0.069, 0.069, 0.16, 0.202, 0.22, 1.0, 1.0, 1.0, 1.0, 1.0, 1.0, 1.0, 1.0, 0.902, 0.95, 0.612, 0.536, 0.491, 0.4, 0.316, 0.202, 0.284, 0.151, 0.191, 0.139, 0.222, 0.086, 0.299, 0.146, 0.729, 0.654, 0.979, 0.861, 1.0, 1.0, 0.977, 0.848, 0.724, 0.49, 0.559, 0.275, 0.296, 0.139, 0.134, 0.112, 0.098, 0.053, 0.074, 0.081, 0.067, 0.075, 0.065, 0.065, 0.063, 0.051, 0.039, 0.037, 0.008, 0.026, 0.005, 0.026, 0.005, 0.02, 0.003, 0.009, 0.005, 0.022, 0.0, 0.013, 0.0, 0.014, 0.0, 0.011, 0.001, 0.007, 0.0, 0.004, 0.0, 0.003, 0.0, 0.0, 0.0, 0.005, 0.0, 0.001, 0.006, 0.001, 0.003, 0.0, 0.01, 0.005, 0.01, 0.009, 0.003, 0.011, 0.002, 0.0, 0.0, 0.006, 0.0, 0.0, 0.0, 0.001, 0.002, 0.012, 0.005, 0.006, 0.006, 0.009, 0.008, 0.013, 0.012, 0.016, 0.004, 0.003, 0.005, 0.003, 0.001, 0.0, 0.004, 0.004, 0.018, 0.0, 0.032, 0.023, 0.048, 0.022, 0.05, 0.018, 0.042, 0.024, 0.024, 0.024, 0.011, 0.019, 0.0, 0.006, 0.0, 0.009, 0.001, 0.001, 0.0, 0.008, 0.02, 0.049, 0.018, 0.032, 0.015, 0.054, 0.02, 0.053, 0.015, 0.021, 0.011, 0.0, 0.009, 0.02, 0.002, 0.003, 0.001, 0.029, 0.005, 0.009, 0.014, 0.019, 0.0, 0.0, 0.008, 0.036, 0.001, 0.019, 0.001, 0.069, 0.004, 0.052, 0.0, 0.025
50.68846130371094, 0, 0.002, 0.02, 0.0, 0.007, 0.0, 0.009, 0.0, 0.0, 0.0, 0.0, 0.003, 0.0, 0.022, 0.009, 0.013, 0.025, 0.009, 0.088, 0.01, 0.108, 0.003, 0.101, 0.003, 0.062, 0.005, 0.026, 0.0, 0.023, 0.007, 0.045, 0.018, 0.068, 0.013, 0.078, 0.004, 0.056, 0.003, 0.049, 0.0, 0.024, 0.011, 0.037, 0.011, 0.029, 0.011, 0.021, 0.008, 0.025, 0.007, 0.005, 0.015, 0.002, 0.005, 0.004, 0.012, 0.005, 0.0, 0.027, 0.0, 0.028, 0.0, 0.026, 0.0, 0.025, 0.0, 0.0, 0.0, 0.001, 0.0, 0.0, 0.0, 0.0, 0.0, 0.02, 0.001, 0.01, 0.002, 0.0, 0.004, 0.003, 0.003, 0.0, 0.014, 0.019, 0.006, 0.005, 0.01, 0.037, 0.001, 0.027, 0.0, 0.025, 0.004, 0.026, 0.0, 0.0, 0.0, 0.0, 0.0, 0.01, 0.0, 0.004
56.76431918144226, 2, 0.0, 0.003, 0.0, 0.017, 0.0, 0.035, 0.001, 0.034, 0.0, 0.056, 0.0, 0.022, 0.0, 0.01, 0.0, 0.0, 0.002, 0.011, 0.01, 0.019, 0.019, 0.046, 0.006, 0.016, 0.008, 0.002, 0.0, 0.0, 0.001, 0.0, 0.005, 0.003, 0.0, 0.02, 0.004, 0.033, 0.003, 0.031, 0.001, 0.029, 0.0, 0.024, 0.004, 0.026, 0.0, 0.028, 0.002, 0.053, 0.008, 0.051, 0.003, 0.026, 0.017, 0.008, 0.015, 0.005, 0.01, 0.017, 0.0, 0.024, 0.0, 0.033, 0.0, 0.015, 0.0, 0.019, 0.0, 0.0, 0.0, 0.007, 0.0, 0.008, 0.0, 0.0, 0.0, 0.006, 0.0, 0.0, 0.0, 0.016, 0.0, 0.013, 0.005, 0.014, 0.009, 0.001, 0.004, 0.0, 0.012, 0.007, 0.008, 0.038, 0.006, 0.052, 0.002, 0.065, 0.0, 0.073, 0.0, 0.042, 0.005, 0.049, 0.008, 0.047, 0.0, 0.05, 0.0, 0.076, 0.0, 0.044, 0.0, 0.063, 0.0, 0.037, 0.004, 0.026, 0.016, 0.057, 0.013, 0.015, 0.016, 0.055, 0.01, 0.077, 0.007, 0.111, 0.21, 0.674, 0.788, 1.0, 1.0, 1.0, 1.0, 1.0, 0.959, 0.838, 0.81, 0.847, 0.726, 0.72, 0.621, 0.714, 0.599, 0.634, 0.74, 0.684, 0.763, 0.861, 0.752, 1.0, 0.841, 1.0, 0.693, 0.956, 0.589, 0.804, 0.543, 0.66, 0.322, 0.635, 0.357, 0.646, 0.29, 0.559, 0.258, 0.452, 0.298, 0.267, 0.257, 0.198, 0.318, 0.074, 0.309, 0.032, 0.394, 0.01, 0.369, 0.006, 0.355, 0.0, 0.249, 0.0, 0.064, 0.001, 0.015, 0.0, 0.0, 0.008, 0.008, 0.007, 0.012, 0.02, 0.005, 0.031, 0.002, 0.024, 0.0, 0.036, 0.0, 0.014, 0.003, 0.016, 0.002, 0.0, 0.016, 0.006, 0.023, 0.0, 0.011, 0.01, 0.022, 0.024, 0.021, 0.0, 0.022, 0.008, 0.02, 0.003, 0.0, 0.004, 0.002, 0.018, 0.008, 0.023, 0.01, 0.035, 0.016, 0.062, 0.009, 0.074, 0.003, 0.071, 0.025, 0.137, 0.0, 0.074, 0.019, 0.075, 0.02, 0.112, 0.0, 0.024, 0.001, 0.016, 0.0, 0.0, 0.0, 0.0, 0.0, 0.0, 0.0, 0.0, 0.018, 0.005, 0.013, 0.0, 0.007, 0.0, 0.0, 0.018, 0.0, 0.008, 0.002, 0.0, 0.0, 0.014, 0.013, 0.026, 0.018, 0.045, 0.019, 0.066, 0.017, 0.053, 0.006, 0.04, 0.0, 0.026, 0.0, 0.015, 0.004, 0.031, 0.0, 0.008, 0.0, 0.0, 0.0, 0.02, 0.0, 0.004, 0.0, 0.009, 0.0, 0.006, 0.0, 0.0, 0.007, 0.025, 0.002, 0.013, 0.009, 0.006, 0.004, 0.0
58.769365549087524, 0, 0.001, 0.0, 0.004, 0.0, 0.0, 0.0, 0.0, 0.0, 0.0, 0.0, 0.0, 0.0, 0.0, 0.0, 0.0, 0.001, 0.0, 0.0, 0.0, 0.013, 0.0, 0.019, 0.0, 0.035, 0.0, 0.033, 0.002, 0.036, 0.001, 0.021, 0.0, 0.012, 0.001, 0.015, 0.0, 0.015, 0.005, 0.031, 0.012, 0.013, 0.011, 0.012, 0.0, 0.0, 0.003, 0.013, 0.0, 0.017, 0.0, 0.014, 0.0, 0.016, 0.0, 0.012, 0.0, 0.003, 0.0, 0.0, 0.0, 0.0, 0.0, 0.0, 0.004, 0.0, 0.0, 0.0, 0.0, 0.0, 0.0, 0.0, 0.0, 0.008, 0.0, 0.006, 0.0, 0.0, 0.0, 0.0, 0.0, 0.0, 0.0, 0.008, 0.0, 0.007, 0.0, 0.005, 0.0, 0.0, 0.0, 0.0, 0.0, 0.0, 0.0, 0.003, 0.0, 0.006, 0.003, 0.02, 0.0, 0.009
64.84164476394653, 3, 0.0, 0.019, 0.0, 0.01, 0.0, 0.0, 0.0, 0.0, 0.0, 0.0, 0.0, 0.003, 0.0, 0.001, 0.0, 0.01, 0.002, 0.004, 0.0, 0.004, 0.001, 0.016, 0.0, 0.011, 0.0, 0.004, 0.0, 0.007, 0.0, 0.0, 0.002, 0.009, 0.0, 0.007, 0.011, 0.0, 0.015, 0.008, 0.012, 0.006, 0.016, 0.012, 0.01, 0.016, 0.001, 0.0, 0.0, 0.005, 0.0, 0.0, 0.0, 0.0, 0.001, 0.004, 0.002, 0.0, 0.0, 0.004, 0.0, 0.004, 0.0, 0.003, 0.0, 0.009, 0.0, 0.009, 0.001, 0.013, 0.0, 0.0, 0.0, 0.0, 0.0, 0.0, 0.0, 0.0, 0.0, 0.005, 0.0, 0.0, 0.0, 0.0, 0.0, 0.0, 0.0, 0.0, 0.0, 0.0, 0.002, 0.0, 0.001, 0.0, 0.006, 0.0, 0.002, 0.0, 0.0, 0.0, 0.004, 0.0, 0.0, 0.0, 0.002, 0.0, 0.001, 0.0, 0.0, 0.014, 0.0, 0.02, 0.0, 0.018, 0.0, 0.004, 0.0, 0.005, 0.006, 0.002, 0.012, 0.003, 0.008, 0.002, 0.0, 0.006, 0.006, 0.01, 0.023, 0.056, 0.041, 0.08, 0.22, 0.355, 0.695, 0.597, 1.0, 0.86, 1.0, 0.847, 1.0, 0.781, 0.877, 0.527, 0.749, 0.427, 0.576, 0.387, 0.643, 0.53, 0.601, 0.571, 0.519, 0.754, 0.538, 0.874, 0.567, 0.865, 0.535, 1.0, 0.889, 1.0, 1.0, 0.992, 0.976, 1.0, 0.945, 0.86, 0.394, 0.395, 0.229, 0.277, 0.19, 0.112, 0.225, 0.075, 0.199, 0.065, 0.211, 0.071, 0.133, 0.057, 0.051, 0.051, 0.027, 0.036, 0.023, 0.03, 0.025, 0.025, 0.027, 0.03, 0.012, 0.022, 0.003, 0.026, 0.0, 0.018, 0.0, 0.013, 0.003, 0.019, 0.0, 0.017, 0.001, 0.036, 0.0, 0.009, 0.0, 0.0, 0.0, 0.0, 0.002, 0.0, 0.005, 0.002, 0.007, 0.018, 0.0, 0.026, 0.0, 0.03, 0.016, 0.041, 0.011, 0.037, 0.013, 0.025, 0.003, 0.062, 0.0, 0.03, 0.003, 0.017, 0.0, 0.012, 0.0, 0.0, 0.0, 0.0, 0.005, 0.011, 0.0, 0.002, 0.017, 0.0, 0.018, 0.0, 0.044, 0.0, 0.048, 0.003, 0.045, 0.0, 0.037, 0.013, 0.009, 0.022, 0.0, 0.03, 0.0, 0.049, 0.0, 0.014, 0.0, 0.006, 0.0, 0.0, 0.002, 0.015, 0.002, 0.027, 0.0, 0.021, 0.0, 0.016, 0.0, 0.0, 0.0, 0.0, 0.0, 0.0, 0.0, 0.0, 0.022, 0.004, 0.015, 0.0, 0.025, 0.0, 0.018, 0.028, 0.004, 0.03, 0.0, 0.053, 0.0, 0.05, 0.0, 0.03, 0.0, 0.016, 0.0, 0.022, 0.0, 0.016
66.84893751144409, 0, 0.0, 0.009, 0.0, 0.017, 0.0, 0.021, 0.0, 0.024, 0.008, 0.028, 0.02, 0.01, 0.021, 0.011, 0.031, 0.029, 0.018, 0.0, 0.007, 0.001, 0.002, 0.006, 0.0, 0.0, 0.0, 0.0, 0.0, 0.0, 0.0, 0.002, 0.0, 0.001, 0.0, 0.017, 0.0, 0.023, 0.0, 0.024, 0.0, 0.033, 0.002, 0.025, 0.0, 0.025, 0.001, 0.028, 0.0, 0.009, 0.0, 0.0, 0.0, 0.024, 0.0, 0.006, 0.0, 0.004, 0.0, 0.0, 0.0, 0.003, 0.0, 0.001, 0.002, 0.005, 0.0, 0.008, 0.0, 0.005, 0.0, 0.014, 0.0, 0.02, 0.0, 0.025, 0.0, 0.011, 0.0, 0.016, 0.0, 0.007, 0.0, 0.008, 0.028, 0.031, 0.029, 0.043, 0.052, 0.047, 0.049, 0.026, 0.015, 0.0, 0.013, 0.0, 0.0, 0.013, 0.0, 0.015, 0.0, 0.021
72.94761872291565, 4, 0.005, 0.027, 0.002, 0.0, 0.0, 0.002, 0.0, 0.007, 0.0, 0.014, 0.0, 0.029, 0.0, 0.04, 0.0, 0.03, 0.0, 0.021, 0.0, 0.0, 0.002, 0.001, 0.006, 0.014, 0.02, 0.016, 0.017, 0.008, 0.011, 0.016, 0.002, 0.007, 0.0, 0.004, 0.0, 0.021, 0.0, 0.011, 0.0, 0.013, 0.002, 0.025, 0.003, 0.0, 0.0, 0.0, 0.0, 0.0, 0.0, 0.0, 0.0, 0.007, 0.0, 0.027, 0.0, 0.011, 0.0, 0.008, 0.0, 0.003, 0.001, 0.0, 0.006, 0.019, 0.004, 0.015, 0.009, 0.006, 0.014, 0.021, 0.007, 0.005, 0.003, 0.004, 0.0, 0.0, 0.0, 0.0, 0.0, 0.002, 0.0, 0.002, 0.0, 0.005, 0.0, 0.018, 0.0, 0.014, 0.002, 0.018, 0.0, 0.03, 0.0, 0.002, 0.0, 0.009, 0.0, 0.0, 0.0, 0.002, 0.007, 0.033, 0.0, 0.015, 0.0, 0.021, 0.0, 0.044, 0.0, 0.008, 0.0, 0.013, 0.0, 0.02, 0.0, 0.005, 0.001, 0.006, 0.004, 0.0, 0.001, 0.0, 0.0, 0.0, 0.0, 0.0, 0.009, 0.008, 0.01, 0.005, 0.035, 0.021, 0.129, 0.067, 0.559, 0.693, 1.0, 1.0, 1.0, 1.0, 1.0, 1.0, 0.761, 0.938, 0.688, 0.817, 0.784, 0.812, 1.0, 0.875, 1.0, 0.733, 0.935, 0.748, 0.754, 0.653, 0.474, 0.514, 0.445, 0.556, 0.358, 0.448, 0.36, 0.478, 0.335, 0.6, 0.268, 0.566, 0.236, 0.544, 0.138, 0.354, 0.16, 0.226, 0.162, 0.148, 0.125, 0.129, 0.081, 0.148, 0.049, 0.091, 0.038, 0.153, 0.029, 0.126, 0.041, 0.092, 0.026, 0.066, 0.003, 0.0, 0.0, 0.033, 0.0, 0.007, 0.009, 0.03, 0.012, 0.022, 0.0, 0.0, 0.0, 0.0, 0.0, 0.0, 0.0, 0.007, 0.007, 0.014, 0.001, 0.012, 0.01, 0.003, 0.007, 0.0, 0.002, 0.0, 0.003, 0.005, 0.005, 0.001, 0.003, 0.01, 0.001, 0.048, 0.0, 0.058, 0.002, 0.053, 0.0, 0.026, 0.005, 0.0, 0.0, 0.0, 0.0, 0.005, 0.0, 0.009, 0.006, 0.021, 0.011, 0.008, 0.008, 0.0, 0.011, 0.017, 0.0, 0.001, 0.0, 0.005, 0.0, 0.006, 0.0, 0.007, 0.0, 0.02, 0.0, 0.005, 0.009, 0.007, 0.006, 0.01, 0.016, 0.005, 0.014, 0.001, 0.006, 0.0, 0.009, 0.013, 0.003, 0.017, 0.0, 0.003, 0.0, 0.0, 0.0, 0.002, 0.0, 0.007, 0.0, 0.009, 0.0, 0.0, 0.009, 0.0, 0.002, 0.001, 0.005, 0.0, 0.0, 0.024, 0.0, 0.028, 0.0, 0.021, 0.0, 0.033, 0.0, 0.01, 0.005, 0.035, 0.009, 0.028
74.9505615234375, 0, 0.0, 0.018, 0.006, 0.012, 0.004, 0.016, 0.001, 0.009, 0.004, 0.02, 0.01, 0.027, 0.001, 0.017, 0.005, 0.009, 0.0, 0.003, 0.0, 0.0, 0.0, 0.007, 0.0, 0.0, 0.0, 0.015, 0.0, 0.027, 0.0, 0.02, 0.0, 0.034, 0.0, 0.011, 0.0, 0.007, 0.0, 0.013, 0.0, 0.0, 0.015, 0.025, 0.019, 0.008, 0.011, 0.004, 0.004, 0.022, 0.002, 0.0, 0.0, 0.017, 0.0, 0.027, 0.002, 0.024, 0.0, 0.023, 0.0, 0.0, 0.0, 0.0, 0.0, 0.0, 0.0, 0.0, 0.0, 0.019, 0.0, 0.022, 0.0, 0.018, 0.004, 0.038, 0.007, 0.016, 0.002, 0.021, 0.016, 0.029, 0.015, 0.011, 0.021, 0.022, 0.027, 0.023, 0.0, 0.015, 0.0, 0.018, 0.0, 0.008, 0.003, 0.0, 0.008, 0.012, 0.0, 0.013, 0.001, 0.015
80.9933454990387, 5, 0.0, 0.012, 0.0, 0.005, 0.0, 0.0, 0.0, 0.009, 0.0, 0.024, 0.0, 0.014, 0.0, 0.022, 0.007, 0.031, 0.0, 0.012, 0.007, 0.014, 0.001, 0.0, 0.002, 0.0, 0.011, 0.003, 0.005, 0.017, 0.0, 0.024, 0.008, 0.024, 0.0, 0.008, 0.017, 0.009, 0.031, 0.0, 0.028, 0.009, 0.025, 0.005, 0.0, 0.014, 0.011, 0.019, 0.0, 0.009, 0.01, 0.007, 0.002, 0.003, 0.002, 0.0, 0.005, 0.0, 0.005, 0.006, 0.008, 0.001, 0.01, 0.005, 0.006, 0.012, 0.001, 0.028, 0.0, 0.02, 0.0, 0.023, 0.0, 0.007, 0.0, 0.0, 0.0, 0.006, 0.0, 0.0, 0.0, 0.008, 0.0, 0.014, 0.0, 0.032, 0.0, 0.035, 0.007, 0.021, 0.006, 0.021, 0.005, 0.009, 0.006, 0.019, 0.002, 0.021, 0.002, 0.028, 0.017, 0.009, 0.01, 0.007, 0.01, 0.0, 0.011, 0.003, 0.005, 0.012, 0.0, 0.007, 0.0, 0.009, 0.0, 0.002, 0.0, 0.0, 0.004, 0.006, 0.012, 0.008, 0.0, 0.004, 0.004, 0.0, 0.016, 0.035, 0.2, 0.135, 0.77, 0.292, 1.0, 0.424, 1.0, 0.59, 1.0, 0.706, 0.926, 0.655, 0.954, 1.0, 0.895, 0.988, 0.997, 1.0, 1.0, 0.991, 0.962, 0.726, 0.956, 0.674, 0.976, 0.585, 0.958, 0.499, 0.83, 0.466, 0.709, 0.348, 0.641, 0.387, 0.376, 0.429, 0.281, 0.713, 0.249, 1.0, 0.327, 1.0, 0.325, 0.88, 0.278, 0.541, 0.198, 0.38, 0.174, 0.239, 0.125, 0.208, 0.136, 0.135, 0.113, 0.189, 0.074, 0.177, 0.095, 0.186, 0.094, 0.176, 0.089, 0.113, 0.081, 0.108, 0.031, 0.075, 0.022, 0.06, 0.0, 0.067, 0.0, 0.022, 0.0, 0.04, 0.0, 0.06, 0.0, 0.045, 0.003, 0.022, 0.0, 0.019, 0.0, 0.003, 0.0, 0.0, 0.001, 0.0, 0.0, 0.005, 0.002, 0.02, 0.001, 0.016, 0.001, 0.045, 0.0, 0.031, 0.001, 0.022, 0.012, 0.063, 0.009, 0.02, 0.011, 0.046, 0.0, 0.038, 0.0, 0.042, 0.019, 0.05, 0.019, 0.023, 0.027, 0.0, 0.02, 0.0, 0.009, 0.0, 0.007, 0.002, 0.0, 0.0, 0.0, 0.002, 0.0, 0.004, 0.0, 0.0, 0.0, 0.0, 0.004, 0.0, 0.016, 0.0, 0.017, 0.0, 0.024, 0.003, 0.01, 0.0, 0.007, 0.005, 0.003, 0.032, 0.006, 0.027, 0.007, 0.0, 0.011, 0.029, 0.002, 0.011, 0.007, 0.007, 0.009, 0.0, 0.003, 0.0, 0.007, 0.0, 0.0, 0.001, 0.004, 0.006, 0.0, 0.016, 0.011, 0.052, 0.011, 0.06, 0.012, 0.103
82.99529910087585, 0, 0.015, 0.12, 0.009, 0.094, 0.009, 0.096, 0.015, 0.086, 0.008, 0.04, 0.013, 0.039, 0.005, 0.036, 0.0, 0.007, 0.0, 0.001, 0.001, 0.005, 0.0, 0.002, 0.0, 0.005, 0.0, 0.002, 0.0, 0.0, 0.0, 0.0, 0.0, 0.004, 0.0, 0.024, 0.0, 0.006, 0.001, 0.03, 0.0, 0.035, 0.01, 0.012, 0.016, 0.014, 0.025, 0.0, 0.033, 0.0, 0.028, 0.004, 0.005, 0.037, 0.0, 0.045, 0.0, 0.057, 0.0, 0.088, 0.0, 0.062, 0.001, 0.032, 0.002, 0.024, 0.0, 0.0, 0.003, 0.0, 0.006, 0.038, 0.01, 0.071, 0.008, 0.092, 0.014, 0.112, 0.0, 0.053, 0.027, 0.032, 0.029, 0.043, 0.029, 0.019, 0.044, 0.035, 0.02, 0.0, 0.023, 0.0, 0.0, 0.026, 0.0, 0.008, 0.0, 0.019, 0.005, 0.009, 0.022, 0.005
89.0680251121521, 1, 0.029, 0.013, 0.027, 0.029, 0.008, 0.028, 0.0, 0.024, 0.0, 0.008, 0.001, 0.0, 0.008, 0.006, 0.022, 0.022, 0.021, 0.006, 0.016, 0.036, 0.016, 0.021, 0.016, 0.054, 0.018, 0.038, 0.016, 0.031, 0.018, 0.036, 0.001, 0.0, 0.0, 0.0, 0.0, 0.0, 0.004, 0.0, 0.013, 0.062, 0.004, 0.039, 0.013, 0.026, 0.017, 0.043, 0.008, 0.0, 0.003, 0.0, 0.011, 0.038, 0.0, 0.047, 0.009, 0.058, 0.007, 0.052, 0.007, 0.01, 0.012, 0.0, 0.0, 0.0, 0.0, 0.0, 0.0, 0.014, 0.0, 0.009, 0.0, 0.035, 0.004, 0.041, 0.0, 0.007, 0.0, 0.0, 0.0, 0.0, 0.0, 0.0, 0.0, 0.035, 0.0, 0.038, 0.009, 0.051, 0.02, 0.081, 0.017, 0.065, 0.011, 0.074, 0.013, 0.105, 0.011, 0.09, 0.026, 0.114, 0.036, 0.162, 0.024, 0.105, 0.018, 0.109, 0.0, 0.049, 0.001, 0.04, 0.0, 0.028, 0.0, 0.007, 0.006, 0.0, 0.016, 0.0, 0.023, 0.032, 0.018, 0.054, 0.017, 0.065, 0.019, 0.046, 0.026, 0.065, 0.039, 0.085, 0.039, 0.126, 0.044, 0.145, 0.08, 0.151, 0.118, 0.129, 0.22, 0.167, 1.0, 0.969, 1.0, 1.0, 1.0, 1.0, 1.0, 1.0, 0.993, 0.987, 0.644, 0.537, 0.473, 0.329, 0.317, 0.204, 0.194, 0.156, 0.147, 0.109, 0.096, 0.084, 0.097, 0.053, 0.225, 0.223, 0.397, 0.518, 0.74, 0.839, 0.883, 0.947, 1.0, 0.721, 0.885, 0.477, 0.78, 0.193, 0.587, 0.116, 0.266, 0.101, 0.21, 0.071, 0.084, 0.055, 0.067, 0.037, 0.048, 0.028, 0.031, 0.017, 0.009, 0.0, 0.004, 0.01, 0.007, 0.012, 0.01, 0.016, 0.006, 0.024, 0.002, 0.027, 0.0, 0.014, 0.001, 0.018, 0.0, 0.011, 0.0, 0.0, 0.0, 0.014, 0.0, 0.0, 0.001, 0.0, 0.003, 0.0, 0.0, 0.0, 0.0, 0.004, 0.003, 0.014, 0.004, 0.015, 0.01, 0.009, 0.007, 0.004, 0.0, 0.002, 0.0, 0.0, 0.0, 0.0, 0.011, 0.004, 0.012, 0.0, 0.011, 0.006, 0.004, 0.007, 0.0, 0.0, 0.0, 0.022, 0.002, 0.01, 0.005, 0.011, 0.008, 0.016, 0.005, 0.0, 0.002, 0.0, 0.0, 0.0, 0.002, 0.002, 0.002, 0.0, 0.003, 0.03, 0.011, 0.022, 0.015, 0.027, 0.015, 0.054, 0.021, 0.017, 0.033, 0.009, 0.019, 0.017, 0.016, 0.009, 0.021, 0.02, 0.029, 0.025, 0.047, 0.009, 0.033, 0.007, 0.015, 0.029, 0.007, 0.066, 0.0, 0.062, 0.0, 0.047, 0.002, 0.066, 0.0, 0.029, 0.009, 0.059
91.09503650665283, 0, 0.001, 0.017, 0.007, 0.0, 0.007, 0.0, 0.014, 0.0, 0.029, 0.017, 0.028, 0.019, 0.024, 0.023, 0.0, 0.014, 0.002, 0.011, 0.0, 0.005, 0.033, 0.054, 0.032, 0.047, 0.019, 0.021, 0.011, 0.0, 0.004, 0.0, 0.014, 0.0, 0.035, 0.032, 0.029, 0.017, 0.032, 0.048, 0.014, 0.045, 0.007, 0.052, 0.021, 0.074, 0.018, 0.076, 0.023, 0.054, 0.022, 0.038, 0.009, 0.0, 0.016, 0.0, 0.0, 0.0, 0.006, 0.009, 0.0, 0.0, 0.003, 0.0, 0.011, 0.008, 0.008, 0.002, 0.009, 0.011, 0.02, 0.037, 0.037, 0.034, 0.046, 0.033, 0.026, 0.004, 0.02, 0.0, 0.0, 0.003, 0.0, 0.003, 0.015, 0.021, 0.02, 0.001, 0.009, 0.0, 0.0, 0.0, 0.0, 0.006, 0.006, 0.035, 0.008, 0.049, 0.011, 0.051, 0.011, 0.065, 0.006, 0.028
97.13998174667358, 2, 0.001, 0.043, 0.0, 0.023, 0.0, 0.0, 0.004, 0.0, 0.003, 0.0, 0.004, 0.003, 0.025, 0.015, 0.024, 0.024, 0.029, 0.037, 0.029, 0.027, 0.011, 0.011, 0.0, 0.031, 0.0, 0.056, 0.006, 0.085, 0.005, 0.071, 0.0, 0.038, 0.0, 0.0, 0.0, 0.002, 0.0, 0.006, 0.0, 0.01, 0.003, 0.016, 0.0, 0.002, 0.002, 0.008, 0.006, 0.0, 0.025, 0.004, 0.027, 0.006, 0.043, 0.003, 0.036, 0.0, 0.031, 0.0, 0.03, 0.006, 0.008, 0.017, 0.013, 0.044, 0.0, 0.061, 0.003, 0.057, 0.0, 0.046, 0.0, 0.02, 0.0, 0.0, 0.001, 0.022, 0.0, 0.001, 0.0, 0.016, 0.0, 0.012, 0.002, 0.0, 0.001, 0.0, 0.0, 0.0, 0.001, 0.0, 0.005, 0.022, 0.006, 0.016, 0.006, 0.027, 0.002, 0.055, 0.002, 0.059, 0.0, 0.042, 0.006, 0.03, 0.002, 0.021, 0.013, 0.022, 0.027, 0.058, 0.017, 0.071, 0.031, 0.056, 0.019, 0.048, 0.022, 0.022, 0.023, 0.021, 0.032, 0.002, 0.026, 0.0, 0.013, 0.0, 0.009, 0.023, 0.011, 0.02, 0.022, 0.046, 0.158, 0.238, 0.523, 0.344, 1.0, 1.0, 1.0, 1.0, 0.966, 1.0, 0.859, 0.907, 0.762, 0.813, 0.749, 0.756, 0.813, 0.825, 0.79, 0.812, 0.755, 0.79, 0.537, 0.683, 0.556, 0.635, 0.59, 0.738, 0.616, 0.699, 0.713, 0.66, 0.67, 0.665, 0.768, 0.704, 0.647, 0.579, 0.523, 0.607, 0.392, 0.457, 0.276, 0.332, 0.45, 0.213, 0.519, 0.096, 0.695, 0.031, 0.624, 0.031, 0.446, 0.015, 0.261, 0.0, 0.07, 0.0, 0.018, 0.0, 0.035, 0.0, 0.013, 0.007, 0.017, 0.032, 0.011, 0.028, 0.0, 0.017, 0.011, 0.028, 0.017, 0.021, 0.012, 0.031, 0.017, 0.022, 0.0, 0.0, 0.0, 0.0, 0.001, 0.0, 0.0, 0.002, 0.002, 0.018, 0.001, 0.024, 0.017, 0.044, 0.015, 0.06, 0.008, 0.043, 0.021, 0.034, 0.013, 0.011, 0.029, 0.0, 0.056, 0.032, 0.044, 0.011, 0.023, 0.004, 0.028, 0.033, 0.016, 0.034, 0.047, 0.039, 0.053, 0.035, 0.018, 0.0, 0.006, 0.0, 0.0, 0.001, 0.0, 0.0, 0.0, 0.0, 0.0, 0.0, 0.0, 0.0, 0.0, 0.0, 0.0, 0.002, 0.003, 0.005, 0.006, 0.037, 0.027, 0.063, 0.024, 0.057, 0.034, 0.068, 0.023, 0.03, 0.024, 0.009, 0.023, 0.036, 0.004, 0.009, 0.007, 0.023, 0.0, 0.06, 0.003, 0.043, 0.0, 0.041, 0.003, 0.033, 0.0, 0.0, 0.002, 0.02, 0.0, 0.037, 0.0, 0.044
99.18371152877808, 0, 0.006, 0.042, 0.011, 0.03, 0.02, 0.014, 0.011, 0.0, 0.03, 0.026, 0.013, 0.02, 0.014, 0.016, 0.008, 0.029, 0.0, 0.0, 0.005, 0.0, 0.0, 0.0, 0.0, 0.0, 0.007, 0.014, 0.01, 0.012, 0.009, 0.013, 0.0, 0.014, 0.0, 0.011, 0.0, 0.015, 0.006, 0.007, 0.012, 0.016, 0.022, 0.042, 0.019, 0.019, 0.022, 0.035, 0.011, 0.017, 0.003, 0.01, 0.0, 0.029, 0.0, 0.011, 0.0, 0.012, 0.0, 0.0, 0.0, 0.007, 0.015, 0.012, 0.017, 0.006, 0.022, 0.021, 0.015, 0.009, 0.007, 0.0, 0.0, 0.0, 0.0, 0.0, 0.005, 0.001, 0.001, 0.0, 0.005, 0.022, 0.011, 0.015, 0.014, 0.036, 0.03, 0.053, 0.013, 0.032, 0.011, 0.048, 0.0, 0.037, 0.0, 0.024, 0.0, 0.03, 0.0, 0.003, 0.0, 0.0, 0.0, 0.0
105.21663999557495, 3, 0.0, 0.004, 0.0, 0.009, 0.0, 0.002, 0.002, 0.016, 0.011, 0.019, 0.023, 0.001, 0.021, 0.02, 0.026, 0.014, 0.021, 0.011, 0.005, 0.031, 0.001, 0.012, 0.0, 0.01, 0.0, 0.024, 0.001, 0.0, 0.011, 0.0, 0.015, 0.0, 0.006, 0.022, 0.008, 0.022, 0.007, 0.056, 0.004, 0.048, 0.0, 0.026, 0.016, 0.017, 0.01, 0.01, 0.029, 0.007, 0.031, 0.04, 0.016, 0.037, 0.02, 0.023, 0.001, 0.005, 0.0, 0.0, 0.0, 0.001, 0.0, 0.012, 0.011, 0.044, 0.003, 0.044, 0.001, 0.043, 0.0, 0.04, 0.0, 0.019, 0.0, 0.023, 0.0, 0.022, 0.0, 0.035, 0.0, 0.033, 0.013, 0.037, 0.005, 0.032, 0.033, 0.0, 0.013, 0.025, 0.005, 0.004, 0.0, 0.023, 0.0, 0.024, 0.0, 0.0, 0.002, 0.0, 0.0, 0.016, 0.0, 0.032, 0.0, 0.051, 0.0, 0.057, 0.0, 0.03, 0.0, 0.032, 0.0, 0.028, 0.0, 0.032, 0.0, 0.048, 0.002, 0.029, 0.0, 0.037, 0.004, 0.041, 0.013, 0.023, 0.007, 0.027, 0.028, 0.014, 0.026, 0.019, 0.006, 0.025, 0.017, 0.016, 0.039, 0.033, 0.172, 0.132, 0.507, 0.325, 0.84, 0.392, 1.0, 0.49, 1.0, 0.481, 1.0, 0.441, 0.864, 0.383, 0.848, 0.527, 0.667, 0.71, 0.571, 0.73, 0.587, 0.979, 0.462, 0.769, 0.494, 0.703, 0.504, 0.819, 0.784, 1.0, 0.971, 1.0, 0.964, 1.0, 0.698, 0.819, 0.529, 0.579, 0.34, 0.294, 0.293, 0.112, 0.263, 0.097, 0.138, 0.071, 0.131, 0.04, 0.023, 0.037, 0.052, 0.029, 0.064, 0.032, 0.048, 0.023, 0.119, 0.017, 0.106, 0.0, 0.08, 0.0, 0.038, 0.009, 0.0, 0.006, 0.008, 0.016, 0.003, 0.033, 0.0, 0.018, 0.0, 0.023, 0.0, 0.027, 0.0, 0.0, 0.004, 0.008, 0.01, 0.0, 0.02, 0.01, 0.033, 0.009, 0.021, 0.0, 0.0, 0.0, 0.0, 0.0, 0.0, 0.013, 0.023, 0.014, 0.024, 0.025, 0.021, 0.014, 0.008, 0.007, 0.027, 0.015, 0.02, 0.019, 0.021, 0.039, 0.013, 0.045, 0.0, 0.032, 0.006, 0.023, 0.004, 0.037, 0.006, 0.022, 0.006, 0.034, 0.0, 0.019, 0.0, 0.0, 0.002, 0.017, 0.023, 0.023, 0.019, 0.016, 0.039, 0.0, 0.051, 0.012, 0.082, 0.03, 0.079, 0.03, 0.084, 0.059, 0.066, 0.072, 0.014, 0.046, 0.008, 0.029, 0.0, 0.0, 0.001, 0.008, 0.004, 0.004, 0.0, 0.006, 0.007, 0.022, 0.006, 0.021, 0.013, 0.021, 0.013, 0.004, 0.023, 0.0, 0.019, 0.006
107.24380111694336, 0, 0.026, 0.004, 0.012, 0.017, 0.016, 0.046, 0.021, 0.049, 0.025, 0.058, 0.029, 0.062, 0.02, 0.056, 0.021, 0.06, 0.002, 0.044, 0.0, 0.03, 0.0, 0.013, 0.0, 0.003, 0.0, 0.002, 0.0, 0.0, 0.0, 0.0, 0.0, 0.001, 0.0, 0.0, 0.016, 0.009, 0.02, 0.014, 0.027, 0.041, 0.045, 0.033, 0.037, 0.052, 0.035, 0.056, 0.019, 0.064, 0.018, 0.073, 0.008, 0.087, 0.004, 0.085, 0.0, 0.051, 0.0, 0.025, 0.0, 0.011, 0.0, 0.004, 0.0, 0.014, 0.007, 0.008, 0.001, 0.014, 0.012, 0.0, 0.02, 0.002, 0.029, 0.0, 0.042, 0.0, 0.031, 0.0, 0.009, 0.0, 0.0, 0.021, 0.0, 0.064, 0.0, 0.078, 0.005, 0.102, 0.0, 0.095, 0.0, 0.066, 0.014, 0.063, 0.012, 0.047, 0.016, 0.058, 0.007, 0.056, 0.009, 0.065
113.25437879562378, 4, 0.003, 0.043, 0.006, 0.044, 0.01, 0.04, 0.017, 0.023, 0.019, 0.014, 0.026, 0.0, 0.0, 0.015, 0.0, 0.024, 0.0, 0.014, 0.0, 0.044, 0.006, 0.029, 0.002, 0.026, 0.012, 0.027, 0.002, 0.011, 0.0, 0.01, 0.0, 0.0, 0.0, 0.0, 0.002, 0.01, 0.003, 0.004, 0.012, 0.01, 0.009, 0.017, 0.017, 0.026, 0.026, 0.023, 0.035, 0.011, 0.027, 0.0, 0.047, 0.0, 0.03, 0.014, 0.023, 0.025, 0.01, 0.042, 0.002, 0.08, 0.002, 0.066, 0.001, 0.064, 0.0, 0.053, 0.0, 0.021, 0.0, 0.003, 0.0, 0.002, 0.0, 0.004, 0.0, 0.0, 0.016, 0.003, 0.028, 0.0, 0.055, 0.026, 0.04, 0.022, 0.047, 0.031, 0.042, 0.031, 0.028, 0.0, 0.013, 0.008, 0.0, 0.017, 0.0, 0.031, 0.0, 0.044, 0.0, 0.045, 0.0, 0.041, 0.0, 0.032, 0.0, 0.038, 0.0, 0.029, 0.0, 0.037, 0.0, 0.03, 0.0, 0.0, 0.002, 0.0, 0.016, 0.004, 0.009, 0.002, 0.014, 0.008, 0.001, 0.023, 0.004, 0.017, 0.167, 0.121, 0.388, 0.327, 0.968, 1.0, 1.0, 1.0, 1.0, 1.0, 1.0, 1.0, 0.879, 0.857, 0.548, 0.767, 0.342, 0.715, 0.366, 0.682, 0.321, 0.534, 0.287, 0.381, 0.351, 0.353, 0.333, 0.232, 0.385, 0.3, 0.493, 0.342, 0.47, 0.399, 0.406, 0.38, 0.321, 0.216, 0.21, 0.104, 0.2, 0.083, 0.151, 0.068, 0.103, 0.063, 0.035, 0.065, 0.042, 0.029, 0.061, 0.017, 0.075, 0.005, 0.069, 0.009, 0.035, 0.01, 0.074, 0.019, 0.059, 0.003, 0.062, 0.0, 0.058, 0.0, 0.0, 0.024, 0.006, 0.002, 0.0, 0.006, 0.006, 0.003, 0.0, 0.0, 0.001, 0.01, 0.003, 0.004, 0.0, 0.0, 0.005, 0.0, 0.0, 0.001, 0.002, 0.011, 0.0, 0.013, 0.0, 0.027, 0.0, 0.014, 0.003, 0.004, 0.025, 0.017, 0.025, 0.0, 0.034, 0.0, 0.016, 0.0, 0.002, 0.002, 0.0, 0.024, 0.008, 0.034, 0.0, 0.035, 0.0, 0.026, 0.0, 0.0, 0.0, 0.0, 0.003, 0.009, 0.011, 0.003, 0.012, 0.011, 0.006, 0.005, 0.008, 0.0, 0.009, 0.022, 0.008, 0.012, 0.024, 0.02, 0.03, 0.026, 0.023, 0.018, 0.013, 0.029, 0.001, 0.022, 0.0, 0.013, 0.0, 0.007, 0.0, 0.001, 0.0, 0.0, 0.0, 0.0, 0.0, 0.009, 0.023, 0.004, 0.027, 0.0, 0.024, 0.016, 0.012, 0.0, 0.0, 0.0, 0.008, 0.014, 0.022, 0.0, 0.023, 0.021, 0.012, 0.05, 0.036, 0.039
115.29332137107849, 0, 0.031, 0.026, 0.042, 0.009, 0.027, 0.002, 0.009, 0.026, 0.0, 0.022, 0.0, 0.02, 0.0, 0.008, 0.0, 0.0, 0.0, 0.014, 0.0, 0.0, 0.0, 0.0, 0.002, 0.0, 0.005, 0.009, 0.026, 0.0, 0.017, 0.0, 0.034, 0.007, 0.014, 0.008, 0.033, 0.024, 0.016, 0.019, 0.017, 0.02, 0.025, 0.031, 0.0, 0.029, 0.0, 0.044, 0.0, 0.037, 0.0, 0.041, 0.0, 0.037, 0.0, 0.004, 0.002, 0.029, 0.001, 0.017, 0.021, 0.034, 0.028, 0.043, 0.026, 0.018, 0.026, 0.018, 0.005, 0.011, 0.021, 0.004, 0.016, 0.0, 0.044, 0.001, 0.051, 0.0, 0.04, 0.002, 0.041, 0.0, 0.0, 0.0, 0.01, 0.006, 0.0, 0.0, 0.0, 0.004, 0.0, 0.0, 0.0, 0.001, 0.0, 0.029, 0.002, 0.017, 0.01, 0.023, 0.022, 0.009, 0.028, 0.005
121.37179589271545, 5, 0.031, 0.01, 0.036, 0.0, 0.047, 0.0, 0.043, 0.017, 0.066, 0.009, 0.052, 0.013, 0.049, 0.007, 0.04, 0.0, 0.027, 0.017, 0.014, 0.0, 0.009, 0.025, 0.0, 0.013, 0.006, 0.025, 0.017, 0.041, 0.013, 0.018, 0.022, 0.031, 0.004, 0.019, 0.004, 0.03, 0.0, 0.019, 0.016, 0.0, 0.035, 0.0, 0.068, 0.014, 0.086, 0.031, 0.04, 0.031, 0.038, 0.037, 0.005, 0.03, 0.003, 0.023, 0.006, 0.015, 0.013, 0.014, 0.008, 0.007, 0.009, 0.0, 0.008, 0.0, 0.002, 0.0, 0.0, 0.016, 0.0, 0.016, 0.001, 0.0, 0.0, 0.0, 0.023, 0.006, 0.047, 0.0, 0.056, 0.008, 0.064, 0.015, 0.047, 0.0, 0.057, 0.023, 0.047, 0.012, 0.02, 0.006, 0.016, 0.008, 0.0, 0.003, 0.0, 0.001, 0.0, 0.005, 0.0, 0.006, 0.001, 0.009, 0.0, 0.011, 0.007, 0.015, 0.0, 0.018, 0.0, 0.006, 0.008, 0.0, 0.015, 0.001, 0.029, 0.008, 0.031, 0.008, 0.035, 0.053, 0.018, 0.052, 0.006, 0.06, 0.011, 0.056, 0.128, 0.054, 1.0, 0.227, 1.0, 0.42, 1.0, 0.845, 0.971, 1.0, 1.0, 1.0, 0.885, 0.895, 0.85, 0.695, 0.795, 0.623, 0.743, 0.685, 0.738, 0.638, 0.815, 0.701, 0.609, 0.727, 0.733, 0.69, 0.797, 0.668, 0.891, 0.604, 0.887, 0.377, 0.65, 0.427, 0.422, 0.592, 0.305, 1.0, 0.351, 1.0, 0.394, 0.903, 0.462, 0.71, 0.424, 0.308, 0.347, 0.209, 0.357, 0.161, 0.268, 0.142, 0.261, 0.133, 0.14, 0.118, 0.123, 0.108, 0.131, 0.098, 0.122, 0.072, 0.1, 0.069, 0.08, 0.048, 0.07, 0.036, 0.0, 0.026, 0.0, 0.0, 0.008, 0.002, 0.0, 0.013, 0.0, 0.018, 0.003, 0.048, 0.005, 0.044, 0.009, 0.064, 0.013, 0.036, 0.0, 0.0, 0.0, 0.009, 0.0, 0.007, 0.004, 0.019, 0.013, 0.006, 0.007, 0.013, 0.022, 0.01, 0.006, 0.012, 0.003, 0.0, 0.002, 0.012, 0.0, 0.0, 0.0, 0.009, 0.001, 0.005, 0.0, 0.008, 0.0, 0.015, 0.0, 0.0, 0.0, 0.01, 0.006, 0.034, 0.0, 0.032, 0.0, 0.058, 0.002, 0.051, 0.011, 0.022, 0.041, 0.014, 0.055, 0.029, 0.054, 0.012, 0.05, 0.0, 0.034, 0.017, 0.013, 0.0, 0.024, 0.011, 0.013, 0.02, 0.002, 0.0, 0.0, 0.0, 0.0, 0.001, 0.008, 0.008, 0.003, 0.007, 0.013, 0.011, 0.015, 0.003, 0.022, 0.001, 0.043, 0.017, 0.046, 0.018, 0.073, 0.007, 0.058, 0.005, 0.062, 0.0, 0.05, 0.0, 0.01, 0.023
123.39414930343628, 0, 0.008, 0.023, 0.0, 0.044, 0.0, 0.039, 0.0, 0.023, 0.0, 0.029, 0.019, 0.034, 0.032, 0.035, 0.042, 0.044, 0.035, 0.052, 0.02, 0.02, 0.005, 0.015, 0.004, 0.0, 0.022, 0.0, 0.018, 0.028, 0.056, 0.033, 0.052, 0.04, 0.065, 0.04, 0.074, 0.025, 0.066, 0.015, 0.056, 0.013, 0.031, 0.0, 0.028, 0.008, 0.009, 0.004, 0.003, 0.0, 0.028, 0.015, 0.0, 0.0, 0.002, 0.0, 0.005, 0.018, 0.0, 0.001, 0.0, 0.0, 0.01, 0.0, 0.033, 0.007, 0.049, 0.0, 0.048, 0.003, 0.056, 0.021, 0.032, 0.011, 0.042, 0.018, 0.027, 0.0, 0.015, 0.003, 0.008, 0.004, 0.0, 0.007, 0.0, 0.007, 0.0, 0.012, 0.004, 0.022, 0.015, 0.045, 0.013, 0.03, 0.008, 0.04, 0.021, 0.032, 0.016, 0.005, 0.022, 0.038, 0.025, 0.017
129.5096697807312, 1, 0.008, 0.013, 0.005, 0.02, 0.007, 0.002, 0.002, 0.013, 0.0, 0.031, 0.0, 0.008, 0.0, 0.001, 0.002, 0.0, 0.0, 0.007, 0.0, 0.017, 0.0, 0.04, 0.0, 0.061, 0.0, 0.05, 0.004, 0.05, 0.009, 0.073, 0.018, 0.126, 0.023, 0.114, 0.031, 0.126, 0.044, 0.035, 0.052, 0.024, 0.045, 0.021, 0.034, 0.0, 0.0, 0.006, 0.0, 0.009, 0.0, 0.031, 0.0, 0.038, 0.0, 0.015, 0.0, 0.014, 0.0, 0.023, 0.004, 0.02, 0.015, 0.027, 0.013, 0.028, 0.02, 0.0, 0.028, 0.002, 0.033, 0.0, 0.034, 0.0, 0.038, 0.0, 0.007, 0.0, 0.0, 0.019, 0.0, 0.025, 0.0, 0.086, 0.001, 0.115, 0.003, 0.121, 0.003, 0.101, 0.0, 0.055, 0.007, 0.035, 0.034, 0.04, 0.027, 0.029, 0.024, 0.03, 0.012, 0.022, 0.006, 0.015, 0.006, 0.003, 0.032, 0.033, 0.024, 0.022, 0.04, 0.015, 0.052, 0.005, 0.065, 0.0, 0.076, 0.028, 0.065, 0.036, 0.03, 0.034, 0.019, 0.028, 0.0, 0.009, 0.0, 0.007, 0.001, 0.011, 0.0, 0.0, 0.016, 0.003, 0.033, 0.051, 0.417, 0.254, 1.0, 1.0, 1.0, 1.0, 1.0, 1.0, 1.0, 1.0, 0.794, 0.797, 0.519, 0.503, 0.381, 0.264, 0.27, 0.167, 0.187, 0.136, 0.142, 0.128, 0.118, 0.098, 0.186, 0.166, 0.36, 0.408, 0.783, 0.829, 0.981, 0.945, 1.0, 0.918, 0.873, 0.54, 0.715, 0.296, 0.398, 0.131, 0.192, 0.095, 0.159, 0.054, 0.147, 0.062, 0.098, 0.039, 0.055, 0.031, 0.028, 0.008, 0.03, 0.003, 0.032, 0.0, 0.041, 0.0, 0.037, 0.016, 0.025, 0.017, 0.011, 0.018, 0.0, 0.016, 0.0, 0.004, 0.0, 0.0, 0.001, 0.005, 0.005, 0.0, 0.006, 0.0, 0.001, 0.008, 0.0, 0.0, 0.001, 0.019, 0.003, 0.025, 0.002, 0.031, 0.001, 0.025, 0.0, 0.012, 0.002, 0.034, 0.003, 0.032, 0.0, 0.049, 0.001, 0.044, 0.0, 0.031, 0.0, 0.026, 0.0, 0.02, 0.0, 0.018, 0.0, 0.013, 0.0, 0.0, 0.002, 0.017, 0.01, 0.0, 0.015, 0.022, 0.012, 0.015, 0.007, 0.0, 0.009, 0.005, 0.024, 0.0, 0.026, 0.006, 0.022, 0.035, 0.021, 0.046, 0.001, 0.067, 0.0, 0.062, 0.012, 0.037, 0.02, 0.056, 0.021, 0.067, 0.017, 0.079, 0.004, 0.058, 0.005, 0.017, 0.0, 0.0, 0.012, 0.003, 0.016, 0.048, 0.024, 0.067, 0.081, 0.087, 0.09, 0.109, 0.105, 0.064, 0.091, 0.087, 0.041, 0.078, 0.018, 0.057, 0.016, 0.044, 0.024, 0.008, 0.05, 0.031
131.51489901542664, 0, 0.033, 0.03, 0.015, 0.028, 0.0, 0.004, 0.0, 0.013, 0.006, 0.054, 0.01, 0.051, 0.0, 0.09, 0.0, 0.06, 0.02, 0.024, 0.033, 0.041, 0.047, 0.012, 0.025, 0.031, 0.028, 0.028, 0.003, 0.001, 0.005, 0.0, 0.0, 0.013, 0.008, 0.004, 0.0, 0.012, 0.004, 0.005, 0.0, 0.0, 0.0, 0.011, 0.002, 0.007, 0.0, 0.0, 0.015, 0.022, 0.039, 0.033, 0.05, 0.021, 0.061, 0.008, 0.052, 0.0, 0.044, 0.015, 0.045, 0.019, 0.055, 0.012, 0.059, 0.0, 0.037, 0.004, 0.03, 0.0, 0.008, 0.042, 0.013, 0.036, 0.016, 0.069, 0.017, 0.058, 0.002, 0.048, 0.0, 0.068, 0.0, 0.012, 0.0, 0.019, 0.016, 0.016, 0.049, 0.016, 0.072, 0.039, 0.091, 0.051, 0.098, 0.032, 0.094, 0.018, 0.065, 0.004, 0.038, 0.005
137.62971115112305, 2, 0.028, 0.004, 0.001, 0.0, 0.007, 0.013, 0.0, 0.0, 0.008, 0.009, 0.013, 0.014, 0.019, 0.0, 0.027, 0.022, 0.017, 0.025, 0.013, 0.045, 0.015, 0.054, 0.052, 0.073, 0.084, 0.071, 0.08, 0.08, 0.058, 0.066, 0.0, 0.025, 0.011, 0.032, 0.0, 0.014, 0.0, 0.029, 0.005, 0.01, 0.0, 0.0, 0.009, 0.0, 0.014, 0.005, 0.03, 0.029, 0.041, 0.017, 0.055, 0.008, 0.06, 0.023, 0.068, 0.013, 0.069, 0.003, 0.074, 0.0, 0.041, 0.0, 0.029, 0.001, 0.0, 0.0, 0.0, 0.005, 0.026, 0.027, 0.026, 0.027, 0.028, 0.057, 0.011, 0.045, 0.0, 0.027, 0.026, 0.014, 0.026, 0.0, 0.045, 0.0, 0.037, 0.0, 0.038, 0.013, 0.043, 0.014, 0.05, 0.013, 0.068, 0.031, 0.058, 0.024, 0.051, 0.033, 0.04, 0.023, 0.017, 0.044, 0.016, 0.032, 0.004, 0.055, 0.008, 0.065, 0.001, 0.018, 0.004, 0.04, 0.0, 0.0, 0.0, 0.0, 0.009, 0.012, 0.017, 0.013, 0.031, 0.029, 0.027, 0.033, 0.062, 0.034, 0.058, 0.029, 0.067, 0.014, 0.075, 0.048, 0.25, 0.441, 0.632, 0.928, 1.0, 1.0, 1.0, 1.0, 1.0, 0.988, 0.937, 0.814, 0.902, 0.842, 0.809, 0.881, 0.54, 0.864, 0.667, 1.0, 0.683, 0.943, 0.764, 1.0, 0.753, 0.928, 0.573, 0.725, 0.486, 0.702, 0.595, 0.61, 0.571, 0.572, 0.52, 0.544, 0.417, 0.395, 0.305, 0.169, 0.552, 0.063, 0.876, 0.058, 1.0, 0.055, 0.76, 0.047, 0.624, 0.02, 0.173, 0.0, 0.073, 0.0, 0.1, 0.0, 0.11, 0.001, 0.058, 0.028, 0.084, 0.025, 0.026, 0.028, 0.021, 0.02, 0.017, 0.003, 0.041, 0.001, 0.032, 0.0, 0.013, 0.0, 0.0, 0.015, 0.014, 0.037, 0.036, 0.025, 0.044, 0.016, 0.045, 0.0, 0.003, 0.004, 0.0, 0.0, 0.0, 0.005, 0.0, 0.007, 0.008, 0.015, 0.0, 0.025, 0.0, 0.0, 0.0, 0.0, 0.01, 0.0, 0.026, 0.004, 0.062, 0.023, 0.089, 0.016, 0.077, 0.021, 0.063, 0.017, 0.05, 0.0, 0.011, 0.0, 0.01, 0.0, 0.0, 0.0, 0.001, 0.007, 0.001, 0.012, 0.009, 0.023, 0.009, 0.082, 0.016, 0.088, 0.004, 0.094, 0.0, 0.082, 0.0, 0.045, 0.0, 0.034, 0.004, 0.052, 0.0, 0.046, 0.0, 0.066, 0.009, 0.074, 0.026, 0.061, 0.043, 0.077, 0.039, 0.067, 0.032, 0.082, 0.016, 0.06, 0.007, 0.051, 0.0, 0.027, 0.0, 0.029, 0.008, 0.037, 0.001, 0.036, 0.025, 0.048, 0.036, 0.025, 0.052, 0.013, 0.076, 0.003
139.6335608959198, 0, 0.045, 0.0, 0.064, 0.033, 0.042, 0.025, 0.055, 0.029, 0.054, 0.033, 0.01, 0.016, 0.016, 0.021, 0.0, 0.022, 0.0, 0.008, 0.0, 0.004, 0.0, 0.0, 0.003, 0.011, 0.02, 0.018, 0.028, 0.027, 0.014, 0.028, 0.007, 0.019, 0.01, 0.0, 0.011, 0.0, 0.028, 0.02, 0.035, 0.016, 0.059, 0.026, 0.064, 0.015, 0.046, 0.014, 0.011, 0.029, 0.0, 0.033, 0.002, 0.018, 0.008, 0.0, 0.005, 0.006, 0.003, 0.0, 0.0, 0.0, 0.005, 0.011, 0.012, 0.0, 0.019, 0.013, 0.06, 0.003, 0.087, 0.005, 0.096, 0.011, 0.107, 0.009, 0.085, 0.023, 0.067, 0.035, 0.036, 0.016, 0.013, 0.039, 0.0, 0.023, 0.002, 0.046, 0.009, 0.058, 0.014, 0.067, 0.015, 0.077, 0.025, 0.041, 0.013, 0.06, 0.025, 0.041, 0.026, 0.036
145.74194765090942, 3, 0.02, 0.048, 0.023, 0.012, 0.002, 0.033, 0.023, 0.042, 0.012, 0.043, 0.005, 0.05, 0.0, 0.019, 0.0, 0.0, 0.013, 0.022, 0.0, 0.0, 0.0, 0.0, 0.0, 0.0, 0.0, 0.0, 0.0, 0.022, 0.005, 0.028, 0.002, 0.029, 0.012, 0.034, 0.014, 0.051, 0.054, 0.041, 0.071, 0.023, 0.109, 0.0, 0.086, 0.0, 0.074, 0.02, 0.038, 0.021, 0.004, 0.024, 0.005, 0.026, 0.005, 0.036, 0.0, 0.016, 0.005, 0.003, 0.0, 0.0, 0.0, 0.0, 0.004, 0.004, 0.0, 0.001, 0.0, 0.009, 0.0, 0.03, 0.009, 0.024, 0.06, 0.017, 0.073, 0.023, 0.095, 0.013, 0.086, 0.031, 0.066, 0.037, 0.052, 0.021, 0.039, 0.041, 0.044, 0.04, 0.039, 0.062, 0.043, 0.038, 0.032, 0.03, 0.027, 0.011, 0.004, 0.003, 0.0, 0.017, 0.0, 0.0, 0.0, 0.007, 0.017, 0.008, 0.029, 0.0, 0.053, 0.025, 0.047, 0.009, 0.084, 0.002, 0.079, 0.0, 0.074, 0.003, 0.059, 0.012, 0.009, 0.025, 0.009, 0.033, 0.0, 0.041, 0.0, 0.017, 0.0, 0.001, 0.005, 0.0, 0.038, 0.0, 0.375, 0.254, 0.673, 0.569, 1.0, 0.668, 1.0, 0.639, 1.0, 0.571, 0.9, 0.313, 0.712, 0.358, 0.591, 0.461, 0.615, 0.444, 0.487, 0.39, 0.574, 0.386, 0.346, 0.262, 0.52, 0.578, 0.5, 0.657, 0.493, 1.0, 0.605, 1.0, 0.529, 1.0, 0.549, 0.912, 0.541, 0.564, 0.491, 0.305, 0.367, 0.152, 0.362, 0.102, 0.266, 0.067, 0.247, 0.037, 0.228, 0.036, 0.123, 0.017, 0.066, 0.0, 0.05, 0.022, 0.041, 0.032, 0.009, 0.035, 0.015, 0.105, 0.027, 0.094, 0.03, 0.06, 0.025, 0.045, 0.015, 0.0, 0.0, 0.028, 0.0, 0.011, 0.004, 0.03, 0.0, 0.032, 0.0, 0.01, 0.0, 0.025, 0.018, 0.012, 0.023, 0.027, 0.006, 0.006, 0.01, 0.011, 0.0, 0.011, 0.005, 0.0, 0.0, 0.0, 0.0, 0.0, 0.0, 0.003, 0.004, 0.0, 0.011, 0.003, 0.008, 0.019, 0.0, 0.02, 0.001, 0.033, 0.005, 0.028, 0.004, 0.0, 0.024, 0.0, 0.039, 0.017, 0.054, 0.013, 0.075, 0.015, 0.064, 0.022, 0.07, 0.0, 0.059, 0.007, 0.04, 0.018, 0.043, 0.0, 0.017, 0.025, 0.012, 0.059, 0.0, 0.047, 0.0, 0.057, 0.0, 0.045, 0.001, 0.012, 0.006, 0.002, 0.0, 0.0, 0.01, 0.017, 0.011, 0.033, 0.007, 0.058, 0.042, 0.028, 0.044, 0.012, 0.059, 0.051, 0.1, 0.021, 0.06, 0.043, 0.064, 0.06, 0.046, 0.044, 0.021, 0.043, 0.018, 0.002
147.7906413078308, 0, 0.008, 0.0, 0.0, 0.0, 0.001, 0.027, 0.001, 0.058, 0.008, 0.072, 0.021, 0.096, 0.018, 0.054, 0.026, 0.035, 0.048, 0.033, 0.062, 0.012, 0.079, 0.01, 0.066, 0.018, 0.048, 0.017, 0.032, 0.028, 0.0, 0.026, 0.0, 0.023, 0.0, 0.017, 0.002, 0.041, 0.0, 0.038, 0.009, 0.044, 0.0, 0.034, 0.0, 0.008, 0.002, 0.0, 0.001, 0.0, 0.029, 0.011, 0.047, 0.029, 0.063, 0.043, 0.061, 0.03, 0.067, 0.004, 0.055, 0.018, 0.059, 0.017, 0.056, 0.018, 0.042, 0.038, 0.026, 0.014, 0.011, 0.015, 0.0, 0.016, 0.004, 0.0, 0.0, 0.004, 0.002, 0.0, 0.0, 0.015, 0.0, 0.022, 0.007, 0.023, 0.024, 0.035, 0.026, 0.066, 0.042, 0.043, 0.053, 0.041, 0.06, 0.038, 0.08, 0.002, 0.077, 0.0, 0.067, 0.0, 0.027, 0.014
153.82620120048523, 4, 0.027, 0.02, 0.012, 0.054, 0.001, 0.034, 0.0, 0.034, 0.0, 0.022, 0.0, 0.009, 0.006, 0.01, 0.018, 0.008, 0.015, 0.0, 0.011, 0.0, 0.038, 0.0, 0.059, 0.004, 0.086, 0.012, 0.109, 0.023, 0.096, 0.046, 0.089, 0.029, 0.074, 0.026, 0.05, 0.019, 0.026, 0.0, 0.004, 0.018, 0.0, 0.0, 0.0, 0.0, 0.0, 0.006, 0.0, 0.0, 0.011, 0.0, 0.017, 0.015, 0.029, 0.003, 0.043, 0.01, 0.056, 0.005, 0.058, 0.0, 0.076, 0.0, 0.067, 0.003, 0.054, 0.032, 0.047, 0.041, 0.004, 0.048, 0.019, 0.042, 0.004, 0.018, 0.004, 0.018, 0.016, 0.0, 0.008, 0.003, 0.01, 0.004, 0.016, 0.017, 0.0, 0.065, 0.0, 0.034, 0.01, 0.032, 0.0, 0.0, 0.004, 0.004, 0.026, 0.0, 0.037, 0.002, 0.1, 0.0, 0.09, 0.0, 0.097, 0.0, 0.062, 0.0, 0.042, 0.0, 0.011, 0.008, 0.008, 0.047, 0.0, 0.031, 0.0, 0.034, 0.0, 0.011, 0.0, 0.008, 0.008, 0.003, 0.019, 0.0, 0.044, 0.001, 0.053, 0.015, 0.12, 0.237, 0.963, 0.757, 1.0, 1.0, 1.0, 1.0, 1.0, 1.0, 0.85, 0.876, 0.777, 1.0, 0.812, 1.0, 0.641, 1.0, 0.587, 0.948, 0.571, 0.851, 0.816, 0.865, 0.871, 0.85, 0.996, 0.895, 0.987, 0.709, 0.855, 0.654, 0.863, 0.677, 1.0, 0.653, 0.939, 0.571, 0.851, 0.355, 0.794, 0.22, 0.472, 0.153, 0.596, 0.129, 0.488, 0.1, 0.433, 0.054, 0.282, 0.002, 0.074, 0.0, 0.057, 0.0, 0.038, 0.026, 0.03, 0.072, 0.031, 0.077, 0.035, 0.082, 0.021, 0.075, 0.005, 0.035, 0.0, 0.014, 0.0, 0.0, 0.0, 0.007, 0.009, 0.011, 0.006, 0.033, 0.059, 0.03, 0.057, 0.005, 0.042, 0.0, 0.059, 0.0, 0.143, 0.0, 0.21, 0.022, 0.335, 0.018, 0.281, 0.025, 0.204, 0.02, 0.078, 0.01, 0.018, 0.032, 0.002, 0.0, 0.0, 0.0, 0.0, 0.0, 0.013, 0.006, 0.0, 0.021, 0.045, 0.044, 0.036, 0.049, 0.046, 0.033, 0.078, 0.039, 0.049, 0.0, 0.068, 0.018, 0.041, 0.003, 0.028, 0.012, 0.023, 0.031, 0.0, 0.02, 0.0, 0.032, 0.0, 0.026, 0.0, 0.013, 0.009, 0.014, 0.016, 0.029, 0.012, 0.013, 0.023, 0.0, 0.018, 0.009, 0.012, 0.015, 0.023, 0.006, 0.027, 0.049, 0.043, 0.03, 0.038, 0.023, 0.044, 0.048, 0.025, 0.028, 0.022, 0.025, 0.024, 0.0, 0.0, 0.0, 0.0, 0.0, 0.004, 0.006, 0.0, 0.026, 0.012, 0.073
155.86320066452026, 0, 0.004, 0.074, 0.005, 0.07, 0.009, 0.082, 0.018, 0.043, 0.018, 0.066, 0.025, 0.086, 0.007, 0.055, 0.004, 0.032, 0.018, 0.011, 0.011, 0.0, 0.0, 0.01, 0.0, 0.011, 0.013, 0.002, 0.008, 0.0, 0.014, 0.0, 0.015, 0.0, 0.002, 0.003, 0.01, 0.021, 0.001, 0.024, 0.009, 0.042, 0.027, 0.052, 0.017, 0.045, 0.006, 0.063, 0.0, 0.072, 0.0, 0.046, 0.019, 0.053, 0.037, 0.04, 0.057, 0.02, 0.075, 0.035, 0.102, 0.011, 0.067, 0.0, 0.051, 0.01, 0.038, 0.006, 0.027, 0.014, 0.01, 0.022, 0.004, 0.025, 0.0, 0.01, 0.0, 0.025, 0.0, 0.013, 0.006, 0.0, 0.011, 0.003, 0.026, 0.0, 0.062, 0.003, 0.066, 0.002, 0.11, 0.0, 0.122, 0.009, 0.125, 0.008, 0.121, 0.008, 0.058, 0.01, 0.048, 0.004, 0.003, 0.011
161.90245985984802, 5, 0.006, 0.028, 0.0, 0.023, 0.001, 0.014, 0.005, 0.0, 0.013, 0.0, 0.024, 0.007, 0.021, 0.012, 0.019, 0.041, 0.011, 0.043, 0.04, 0.0, 0.029, 0.007, 0.087, 0.0, 0.062, 0.004, 0.079, 0.002, 0.052, 0.0, 0.023, 0.0, 0.0, 0.026, 0.0, 0.032, 0.001, 0.036, 0.0, 0.04, 0.004, 0.043, 0.006, 0.014, 0.0, 0.025, 0.01, 0.0, 0.027, 0.006, 0.038, 0.008, 0.052, 0.006, 0.049, 0.025, 0.029, 0.03, 0.033, 0.041, 0.027, 0.03, 0.047, 0.036, 0.047, 0.014, 0.013, 0.017, 0.002, 0.008, 0.002, 0.008, 0.0, 0.025, 0.001, 0.012, 0.0, 0.01, 0.0, 0.009, 0.0, 0.0, 0.01, 0.0, 0.027, 0.001, 0.042, 0.008, 0.039, 0.02, 0.068, 0.042, 0.057, 0.035, 0.065, 0.03, 0.09, 0.032, 0.05, 0.041, 0.039, 0.026, 0.038, 0.039, 0.01, 0.045, 0.01, 0.036, 0.002, 0.046, 0.003, 0.025, 0.003, 0.011, 0.019, 0.011, 0.002, 0.0, 0.029, 0.017, 0.039, 0.006, 0.032, 0.017, 0.023, 0.015, 0.01, 0.025, 0.024, 0.013, 0.023, 0.003, 0.054, 0.005, 0.146, 0.056, 0.291, 0.102, 1.0, 0.221, 1.0, 0.332, 1.0, 0.668, 1.0, 0.806, 0.863, 0.879, 0.672, 0.91, 0.74, 0.788, 0.699, 0.948, 0.678, 0.998, 0.74, 0.826, 0.644, 0.774, 0.694, 0.555, 0.849, 0.482, 0.867, 0.475, 0.674, 0.452, 0.404, 0.514, 0.23, 0.61, 0.293, 0.957, 0.327, 0.916, 0.31, 0.764, 0.257, 0.439, 0.118, 0.208, 0.007, 0.091, 0.003, 0.189, 0.012, 0.329, 0.015, 0.323, 0.021, 0.389, 0.0, 0.15, 0.001, 0.051, 0.0, 0.013, 0.0, 0.0, 0.001, 0.0, 0.0, 0.0, 0.0, 0.025, 0.0, 0.039, 0.0, 0.069, 0.0, 0.028, 0.007, 0.0, 0.049, 0.017, 0.07, 0.0, 0.087, 0.007, 0.088, 0.023, 0.03, 0.0, 0.009, 0.009, 0.0, 0.006, 0.0, 0.0, 0.007, 0.039, 0.002, 0.016, 0.003, 0.029, 0.0, 0.011, 0.0, 0.002, 0.0, 0.0, 0.0, 0.0, 0.0, 0.033, 0.0, 0.032, 0.0, 0.111, 0.003, 0.1, 0.006, 0.08, 0.0, 0.066, 0.0, 0.0, 0.0, 0.004, 0.005, 0.0, 0.011, 0.0, 0.016, 0.002, 0.004, 0.0, 0.011, 0.012, 0.003, 0.0, 0.003, 0.05, 0.0, 0.075, 0.0, 0.093, 0.005, 0.094, 0.0, 0.089, 0.03, 0.061, 0.058, 0.075, 0.066, 0.1, 0.061, 0.08, 0.035, 0.053, 0.0, 0.04, 0.0, 0.0, 0.002, 0.0, 0.0, 0.021, 0.0, 0.005
163.93304133415222, 0, 0.0, 0.042, 0.01, 0.061, 0.006, 0.036, 0.0, 0.061, 0.0, 0.049, 0.0, 0.072, 0.0, 0.063, 0.0, 0.041, 0.002, 0.044, 0.009, 0.03, 0.008, 0.017, 0.0, 0.023, 0.0, 0.006, 0.0, 0.0, 0.0, 0.0, 0.006, 0.0, 0.0, 0.0, 0.0, 0.002, 0.0, 0.0, 0.0, 0.0, 0.0, 0.005, 0.0, 0.003, 0.0, 0.023, 0.0, 0.035, 0.002, 0.089, 0.008, 0.096, 0.0, 0.072, 0.003, 0.01, 0.0, 0.029, 0.0, 0.028, 0.0, 0.025, 0.0, 0.057, 0.0, 0.042, 0.0, 0.042, 0.01, 0.046, 0.011, 0.008, 0.007, 0.002, 0.013, 0.006, 0.0, 0.0, 0.002, 0.0, 0.0, 0.006, 0.0, 0.008, 0.0, 0.013, 0.0, 0.032, 0.0, 0.02, 0.0, 0.021, 0.0, 0.018, 0.003, 0.021, 0.003, 0.008, 0.0, 0.01, 0.0, 0.0
170.05303955078125, 1, 0.0, 0.03, 0.0, 0.038, 0.0, 0.043, 0.0, 0.07, 0.001, 0.017, 0.0, 0.019, 0.0, 0.026, 0.0, 0.0, 0.0, 0.022, 0.008, 0.022, 0.013, 0.011, 0.0, 0.016, 0.001, 0.014, 0.0, 0.011, 0.008, 0.022, 0.011, 0.006, 0.001, 0.0, 0.0, 0.0, 0.0, 0.0, 0.0, 0.0, 0.0, 0.0, 0.0, 0.0, 0.0, 0.024, 0.0, 0.054, 0.003, 0.056, 0.006, 0.068, 0.005, 0.066, 0.0, 0.034, 0.0, 0.032, 0.0, 0.018, 0.001, 0.043, 0.004, 0.036, 0.023, 0.05, 0.022, 0.077, 0.022, 0.103, 0.005, 0.071, 0.0, 0.062, 0.0, 0.045, 0.0, 0.0, 0.0, 0.077, 0.0, 0.064, 0.0, 0.084, 0.0, 0.09, 0.0, 0.012, 0.0, 0.0, 0.0, 0.002, 0.0, 0.008, 0.0, 0.016, 0.0, 0.016, 0.0, 0.0, 0.002, 0.0, 0.0, 0.0, 0.011, 0.017, 0.013, 0.006, 0.013, 0.0, 0.006, 0.025, 0.006, 0.038, 0.0, 0.073, 0.004, 0.081, 0.004, 0.08, 0.0, 0.066, 0.005, 0.014, 0.003, 0.0, 0.011, 0.0, 0.016, 0.017, 0.269, 0.215, 1.0, 0.58, 1.0, 1.0, 1.0, 1.0, 1.0, 1.0, 0.793, 0.935, 0.533, 0.705, 0.467, 0.43, 0.356, 0.22, 0.247, 0.136, 0.196, 0.118, 0.147, 0.12, 0.245, 0.199, 0.613, 0.592, 0.816, 0.9, 0.868, 1.0, 0.825, 0.828, 0.668, 0.619, 0.451, 0.23, 0.237, 0.142, 0.164, 0.101, 0.101, 0.064, 0.073, 0.037, 0.056, 0.029, 0.031, 0.032, 0.007, 0.026, 0.011, 0.019, 0.005, 0.011, 0.001, 0.0, 0.001, 0.01, 0.0, 0.014, 0.0, 0.0, 0.0, 0.0, 0.001, 0.006, 0.0, 0.0, 0.0, 0.004, 0.007, 0.002, 0.008, 0.0, 0.012, 0.0, 0.01, 0.0, 0.006, 0.002, 0.003, 0.014, 0.0, 0.038, 0.006, 0.067, 0.004, 0.062, 0.005, 0.035, 0.0, 0.014, 0.0, 0.037, 0.0, 0.037, 0.0, 0.048, 0.0, 0.024, 0.004, 0.0, 0.007, 0.008, 0.011, 0.011, 0.022, 0.018, 0.016, 0.022, 0.016, 0.012, 0.012, 0.0, 0.0, 0.0, 0.002, 0.006, 0.001, 0.015, 0.005, 0.014, 0.0, 0.016, 0.005, 0.053, 0.01, 0.038, 0.007, 0.033, 0.016, 0.071, 0.014, 0.02, 0.016, 0.005, 0.02, 0.005, 0.009, 0.004, 0.0, 0.0, 0.001, 0.0, 0.0, 0.0, 0.0, 0.035, 0.005, 0.033, 0.016, 0.004, 0.019, 0.0, 0.015, 0.0, 0.007, 0.003, 0.0, 0.051, 0.0, 0.038, 0.0, 0.037, 0.0, 0.0, 0.001, 0.002, 0.0, 0.018, 0.0, 0.016, 0.004, 0.0
172.09101223945618, 0, 0.002, 0.006, 0.005, 0.0, 0.012, 0.0, 0.008, 0.0, 0.011, 0.0, 0.005, 0.004, 0.0, 0.0, 0.001, 0.019, 0.0, 0.041, 0.001, 0.056, 0.008, 0.048, 0.002, 0.024, 0.027, 0.047, 0.025, 0.031, 0.02, 0.044, 0.009, 0.047, 0.0, 0.036, 0.0, 0.045, 0.0, 0.055, 0.0, 0.026, 0.0, 0.0, 0.0, 0.0, 0.0, 0.0, 0.0, 0.008, 0.001, 0.033, 0.0, 0.059, 0.0, 0.072, 0.0, 0.058, 0.0, 0.055, 0.0, 0.0, 0.0, 0.001, 0.0, 0.0, 0.0, 0.0, 0.0, 0.015, 0.0, 0.0, 0.0, 0.0, 0.0, 0.022, 0.0, 0.005, 0.0, 0.018, 0.013, 0.04, 0.017, 0.06, 0.005, 0.049, 0.0, 0.064, 0.0, 0.059, 0.0, 0.059, 0.0, 0.074, 0.0, 0.067, 0.0, 0.059, 0.0, 0.026, 0.0, 0.035, 0.0, 0.032
178.16790294647217, 2, 0.0, 0.014, 0.0, 0.011, 0.007, 0.0, 0.008, 0.039, 0.003, 0.04, 0.0, 0.012, 0.0, 0.027, 0.0, 0.0, 0.0, 0.042, 0.005, 0.048, 0.0, 0.008, 0.0, 0.0, 0.0, 0.0, 0.0, 0.002, 0.0, 0.028, 0.0, 0.014, 0.0, 0.04, 0.001, 0.081, 0.001, 0.078, 0.002, 0.067, 0.0, 0.033, 0.005, 0.012, 0.007, 0.032, 0.005, 0.0, 0.004, 0.021, 0.0, 0.0, 0.0, 0.013, 0.0, 0.036, 0.0, 0.009, 0.0, 0.031, 0.0, 0.022, 0.0, 0.014, 0.0, 0.015, 0.0, 0.006, 0.0, 0.004, 0.0, 0.005, 0.0, 0.0, 0.0, 0.0, 0.002, 0.015, 0.0, 0.038, 0.0, 0.041, 0.0, 0.046, 0.0, 0.041, 0.0, 0.04, 0.0, 0.04, 0.0, 0.027, 0.0, 0.015, 0.0, 0.051, 0.0, 0.045, 0.0, 0.07, 0.0, 0.079, 0.0, 0.028, 0.016, 0.068, 0.004, 0.056, 0.006, 0.034, 0.002, 0.083, 0.0, 0.048, 0.001, 0.066, 0.002, 0.039, 0.0, 0.023, 0.0, 0.0, 0.0, 0.003, 0.0, 0.019, 0.0, 0.0, 0.061, 0.154, 0.713, 1.0, 1.0, 1.0, 1.0, 1.0, 0.981, 1.0, 0.715, 0.638, 0.519, 0.505, 0.515, 0.68, 0.539, 0.818, 0.558, 0.842, 0.615, 0.923, 0.495, 0.844, 0.518, 0.795, 0.528, 0.804, 0.513, 0.77, 0.451, 0.539, 0.427, 0.56, 0.437, 0.584, 0.434, 0.477, 0.481, 0.44, 0.528, 0.153, 0.584, 0.044, 0.539, 0.01, 0.379, 0.013, 0.178, 0.009, 0.077, 0.0, 0.063, 0.0, 0.059, 0.006, 0.034, 0.0, 0.0, 0.0, 0.0, 0.009, 0.0, 0.005, 0.0, 0.012, 0.0, 0.0, 0.01, 0.014, 0.023, 0.0, 0.029, 0.0, 0.029, 0.019, 0.011, 0.006, 0.008, 0.0, 0.005, 0.0, 0.002, 0.003, 0.0, 0.016, 0.001, 0.043, 0.0, 0.06, 0.0, 0.062, 0.001, 0.036, 0.0, 0.049, 0.0, 0.024, 0.0, 0.008, 0.0, 0.011, 0.0, 0.0, 0.0, 0.0, 0.001, 0.039, 0.001, 0.014, 0.0, 0.017, 0.0, 0.061, 0.0, 0.022, 0.0, 0.056, 0.0, 0.039, 0.0, 0.02, 0.0, 0.063, 0.0, 0.0, 0.0, 0.0, 0.004, 0.002, 0.013, 0.0, 0.004, 0.0, 0.0, 0.001, 0.0, 0.0, 0.0, 0.014, 0.0, 0.029, 0.004, 0.038, 0.007, 0.047, 0.009, 0.035, 0.001, 0.039, 0.0, 0.022, 0.0, 0.0, 0.0, 0.0, 0.012, 0.023, 0.005, 0.019, 0.01, 0.033, 0.003, 0.015, 0.0, 0.0, 0.0, 0.018, 0.0, 0.028, 0.0, 0.058, 0.0, 0.051, 0.0, 0.024
180.20782685279846, 0, 0.0, 0.025, 0.0, 0.0, 0.0, 0.011, 0.0, 0.038, 0.0, 0.031, 0.0, 0.084, 0.0, 0.054, 0.0, 0.059, 0.0, 0.061, 0.001, 0.0, 0.001, 0.101, 0.006, 0.047, 0.0, 0.065, 0.005, 0.041, 0.005, 0.0, 0.007, 0.0, 0.002, 0.0, 0.0, 0.042, 0.0, 0.037, 0.0, 0.071, 0.002, 0.078, 0.006, 0.058, 0.005, 0.078, 0.0, 0.001, 0.0, 0.0, 0.0, 0.0, 0.0, 0.014, 0.0, 0.025, 0.0, 0.019, 0.0, 0.029, 0.0, 0.029, 0.0, 0.025, 0.0, 0.05, 0.0, 0.04, 0.0, 0.064, 0.0, 0.042, 0.0, 0.016, 0.0, 0.007, 0.0, 0.0, 0.0, 0.036, 0.0, 0.039, 0.0, 0.064, 0.0, 0.084, 0.0, 0.054, 0.0, 0.103, 0.0, 0.073, 0.0, 0.076, 0.0, 0.015, 0.0, 0.04, 0.0, 0.026, 0.0, 0.0
186.24758577346802, 3, 0.0, 0.01, 0.0, 0.0, 0.0, 0.006, 0.0, 0.03, 0.0, 0.007, 0.0, 0.012, 0.0, 0.038, 0.0, 0.029, 0.001, 0.069, 0.0, 0.061, 0.0, 0.06, 0.0, 0.05, 0.0, 0.02, 0.0, 0.052, 0.0, 0.028, 0.0, 0.053, 0.0, 0.016, 0.003, 0.004, 0.0, 0.0, 0.0, 0.018, 0.0, 0.022, 0.0, 0.004, 0.0, 0.028, 0.0, 0.018, 0.0, 0.011, 0.0, 0.015, 0.0, 0.0, 0.0, 0.019, 0.0, 0.041, 0.001, 0.038, 0.0, 0.056, 0.0, 0.024, 0.0, 0.041, 0.0, 0.005, 0.0, 0.018, 0.0, 0.028, 0.0, 0.011, 0.0, 0.007, 0.0, 0.0, 0.0, 0.0, 0.0, 0.007, 0.0, 0.034, 0.0, 0.03, 0.0, 0.006, 0.0, 0.009, 0.0, 0.0, 0.004, 0.012, 0.013, 0.005, 0.003, 0.012, 0.004, 0.0, 0.004, 0.009, 0.0, 0.002, 0.0, 0.0, 0.0, 0.012, 0.0, 0.0, 0.0, 0.015, 0.002, 0.0, 0.001, 0.0, 0.001, 0.015, 0.0, 0.013, 0.0, 0.0, 0.002, 0.012, 0.001, 0.0, 0.005, 0.016, 0.012, 0.034, 0.012, 0.008, 0.18, 0.132, 0.546, 0.428, 1.0, 0.873, 1.0, 0.965, 1.0, 0.965, 0.878, 0.612, 0.775, 0.354, 0.398, 0.283, 0.356, 0.215, 0.27, 0.289, 0.246, 0.383, 0.545, 1.0, 0.805, 1.0, 1.0, 1.0, 0.971, 0.969, 0.843, 0.594, 0.599, 0.33, 0.305, 0.174, 0.179, 0.098, 0.057, 0.064, 0.108, 0.01, 0.12, 0.015, 0.118, 0.001, 0.122, 0.021, 0.039, 0.016, 0.018, 0.0, 0.027, 0.008, 0.007, 0.0, 0.006, 0.0, 0.0, 0.013, 0.0, 0.0, 0.005, 0.0, 0.0, 0.0, 0.0, 0.009, 0.0, 0.0, 0.0, 0.007, 0.01, 0.0, 0.012, 0.0, 0.009, 0.001, 0.002, 0.0, 0.0, 0.005, 0.0, 0.024, 0.004, 0.042, 0.013, 0.053, 0.025, 0.062, 0.036, 0.047, 0.028, 0.055, 0.015, 0.033, 0.003, 0.005, 0.0, 0.025, 0.0, 0.006, 0.004, 0.019, 0.006, 0.0, 0.015, 0.0, 0.009, 0.019, 0.0, 0.037, 0.005, 0.036, 0.002, 0.042, 0.011, 0.056, 0.007, 0.014, 0.0, 0.007, 0.006, 0.0, 0.003, 0.0, 0.004, 0.005, 0.001, 0.008, 0.016, 0.018, 0.009, 0.0, 0.014, 0.038, 0.026, 0.04, 0.023, 0.008, 0.013, 0.023, 0.007, 0.0, 0.0, 0.012, 0.0, 0.002, 0.002, 0.026, 0.018, 0.03, 0.027, 0.011, 0.032, 0.021, 0.027, 0.0, 0.0, 0.006, 0.007, 0.029, 0.011, 0.013, 0.015, 0.018, 0.005, 0.012, 0.0, 0.0
188.28647875785828, 0, 0.0, 0.013, 0.002, 0.0, 0.016, 0.005, 0.014, 0.004, 0.0, 0.0, 0.008, 0.004, 0.009, 0.006, 0.012, 0.017, 0.008, 0.065, 0.01, 0.07, 0.004, 0.084, 0.003, 0.078, 0.006, 0.042, 0.003, 0.023, 0.012, 0.015, 0.007, 0.006, 0.004, 0.012, 0.0, 0.007, 0.0, 0.032, 0.0, 0.011, 0.01, 0.067, 0.002, 0.016, 0.001, 0.007, 0.002, 0.011, 0.009, 0.0, 0.008, 0.01, 0.011, 0.031, 0.01, 0.0, 0.01, 0.025, 0.009, 0.003, 0.002, 0.001, 0.001, 0.025, 0.0, 0.014, 0.0, 0.002, 0.0, 0.012, 0.02, 0.0, 0.022, 0.004, 0.017, 0.023, 0.015, 0.023, 0.0, 0.051, 0.004, 0.05, 0.011, 0.037, 0.012, 0.046, 0.007, 0.033, 0.009, 0.073, 0.0, 0.046, 0.0, 0.017, 0.004, 0.01, 0.0, 0.01, 0.0, 0.007, 0.0, 0.0
194.32321500778198, 4, 0.0, 0.0, 0.0, 0.0, 0.0, 0.053, 0.0, 0.063, 0.0, 0.063, 0.006, 0.093, 0.005, 0.037, 0.009, 0.053, 0.002, 0.081, 0.0, 0.067, 0.011, 0.06, 0.013, 0.056, 0.003, 0.013, 0.003, 0.056, 0.009, 0.061, 0.008, 0.037, 0.007, 0.061, 0.0, 0.04, 0.0, 0.06, 0.0, 0.065, 0.0, 0.082, 0.0, 0.071, 0.001, 0.034, 0.008, 0.045, 0.011, 0.0, 0.015, 0.006, 0.021, 0.0, 0.013, 0.0, 0.012, 0.0, 0.0, 0.008, 0.0, 0.021, 0.0, 0.054, 0.0, 0.031, 0.007, 0.033, 0.009, 0.069, 0.017, 0.045, 0.027, 0.062, 0.026, 0.045, 0.019, 0.016, 0.0, 0.006, 0.006, 0.015, 0.002, 0.004, 0.0, 0.0, 0.0, 0.023, 0.003, 0.013, 0.009, 0.0, 0.022, 0.046, 0.011, 0.027, 0.0, 0.026, 0.0, 0.025, 0.004, 0.018, 0.005, 0.002, 0.009, 0.027, 0.007, 0.015, 0.011, 0.036, 0.012, 0.055, 0.008, 0.009, 0.012, 0.007, 0.008, 0.0, 0.003, 0.004, 0.0, 0.023, 0.004, 0.045, 0.0, 0.053, 0.0, 0.035, 0.0, 0.022, 0.116, 0.049, 0.609, 0.449, 1.0, 1.0, 1.0, 1.0, 1.0, 1.0, 0.809, 0.904, 0.633, 0.675, 0.693, 0.696, 0.595, 0.854, 0.58, 1.0, 0.438, 0.799, 0.465, 0.546, 0.63, 0.433, 0.696, 0.419, 0.729, 0.446, 0.544, 0.429, 0.319, 0.333, 0.23, 0.139, 0.057, 0.162, 0.032, 0.142, 0.045, 0.129, 0.047, 0.083, 0.044, 0.004, 0.019, 0.0, 0.0, 0.0, 0.02, 0.011, 0.011, 0.0, 0.0, 0.036, 0.0, 0.035, 0.0, 0.017, 0.007, 0.032, 0.015, 0.0, 0.016, 0.01, 0.014, 0.017, 0.011, 0.043, 0.002, 0.008, 0.012, 0.0, 0.018, 0.0, 0.013, 0.0, 0.0, 0.01, 0.0, 0.0, 0.0, 0.038, 0.0, 0.048, 0.001, 0.012, 0.003, 0.059, 0.004, 0.007, 0.003, 0.038, 0.0, 0.071, 0.0, 0.075, 0.022, 0.17, 0.03, 0.133, 0.029, 0.072, 0.029, 0.049, 0.006, 0.005, 0.0, 0.077, 0.0, 0.073, 0.0, 0.098, 0.004, 0.072, 0.0, 0.006, 0.008, 0.0, 0.006, 0.0, 0.006, 0.061, 0.005, 0.056, 0.0, 0.064, 0.0, 0.099, 0.0, 0.051, 0.007, 0.121, 0.013, 0.119, 0.018, 0.082, 0.02, 0.041, 0.011, 0.018, 0.002, 0.003, 0.0, 0.019, 0.0, 0.017, 0.0, 0.012, 0.0, 0.016, 0.0, 0.0, 0.0, 0.0, 0.0, 0.0, 0.0, 0.006, 0.0, 0.016, 0.0, 0.03, 0.002, 0.052, 0.005, 0.039, 0.0, 0.03, 0.003, 0.081
196.34890341758728, 0, 0.0, 0.066, 0.009, 0.075, 0.009, 0.092, 0.017, 0.053, 0.021, 0.078, 0.012, 0.062, 0.016, 0.006, 0.006, 0.0, 0.01, 0.0, 0.013, 0.038, 0.007, 0.047, 0.014, 0.04, 0.015, 0.062, 0.007, 0.044, 0.0, 0.083, 0.0, 0.068, 0.0, 0.007, 0.0, 0.017, 0.0, 0.0, 0.0, 0.037, 0.0, 0.022, 0.014, 0.009, 0.011, 0.0, 0.004, 0.0, 0.003, 0.0, 0.0, 0.028, 0.001, 0.028, 0.0, 0.035, 0.0, 0.058, 0.006, 0.018, 0.007, 0.021, 0.019, 0.037, 0.013, 0.033, 0.015, 0.036, 0.01, 0.043, 0.008, 0.03, 0.009, 0.005, 0.006, 0.008, 0.014, 0.022, 0.016, 0.072, 0.005, 0.055, 0.0, 0.068, 0.0, 0.029, 0.0, 0.018, 0.0, 0.0, 0.002, 0.03, 0.0, 0.0, 0.0, 0.0, 0.0, 0.017, 0.0, 0.0, 0.001, 0.022
202.39590907096863, 5, 0.005, 0.0, 0.007, 0.005, 0.012, 0.042, 0.01, 0.048, 0.002, 0.043, 0.0, 0.019, 0.0, 0.0, 0.001, 0.03, 0.0, 0.055, 0.0, 0.068, 0.0, 0.072, 0.0, 0.014, 0.0, 0.026, 0.0, 0.001, 0.0, 0.012, 0.0, 0.012, 0.0, 0.0, 0.001, 0.036, 0.0, 0.042, 0.0, 0.076, 0.0, 0.048, 0.0, 0.116, 0.0, 0.078, 0.0, 0.068, 0.0, 0.073, 0.0, 0.0, 0.0, 0.0, 0.006, 0.0, 0.002, 0.0, 0.0, 0.004, 0.0, 0.004, 0.004, 0.0, 0.01, 0.025, 0.003, 0.032, 0.0, 0.02, 0.0, 0.023, 0.0, 0.0, 0.0, 0.008, 0.001, 0.012, 0.001, 0.03, 0.006, 0.051, 0.001, 0.018, 0.0, 0.035, 0.0, 0.03, 0.0, 0.01, 0.0, 0.018, 0.002, 0.0, 0.019, 0.015, 0.02, 0.016, 0.021, 0.001, 0.025, 0.007, 0.017, 0.0, 0.021, 0.003, 0.004, 0.047, 0.003, 0.039, 0.0, 0.077, 0.003, 0.044, 0.013, 0.011, 0.004, 0.06, 0.0, 0.017, 0.002, 0.036, 0.0, 0.043, 0.002, 0.0, 0.253, 0.099, 0.85, 0.163, 1.0, 0.281, 1.0, 0.54, 0.979, 0.848, 1.0, 1.0, 0.941, 0.894, 0.873, 0.869, 0.766, 0.58, 0.761, 0.523, 0.714, 0.468, 0.651, 0.426, 0.727, 0.455, 0.763, 0.523, 0.742, 0.429, 0.714, 0.507, 0.66, 0.556, 0.564, 0.884, 0.509, 1.0, 0.466, 1.0, 0.411, 0.95, 0.272, 0.67, 0.199, 0.38, 0.117, 0.138, 0.101, 0.053, 0.052, 0.0, 0.033, 0.026, 0.018, 0.022, 0.02, 0.03, 0.023, 0.027, 0.016, 0.0, 0.018, 0.037, 0.0, 0.04, 0.006, 0.017, 0.0, 0.0, 0.0, 0.031, 0.004, 0.0, 0.004, 0.014, 0.008, 0.043, 0.012, 0.0, 0.006, 0.0, 0.01, 0.0, 0.001, 0.0, 0.0, 0.007, 0.0, 0.033, 0.0, 0.004, 0.0, 0.027, 0.019, 0.045, 0.012, 0.037, 0.017, 0.049, 0.014, 0.016, 0.006, 0.021, 0.005, 0.0, 0.009, 0.0, 0.006, 0.002, 0.008, 0.0, 0.003, 0.008, 0.0, 0.012, 0.002, 0.002, 0.0, 0.0, 0.006, 0.017, 0.021, 0.007, 0.021, 0.028, 0.02, 0.0, 0.013, 0.008, 0.011, 0.0, 0.022, 0.0, 0.02, 0.0, 0.02, 0.009, 0.02, 0.033, 0.016, 0.017, 0.019, 0.016, 0.021, 0.033, 0.0, 0.002, 0.003, 0.05, 0.007, 0.05, 0.0, 0.068, 0.0, 0.049, 0.0, 0.02, 0.0, 0.048, 0.02, 0.047, 0.02, 0.051, 0.006, 0.076, 0.013, 0.043, 0.0, 0.024, 0.0, 0.027, 0.005, 0.0, 0.0, 0.013
2.035088062286377, 0, 0.027, 0.055, 0.013, 0.03, 0.005, 0.022, 0.0, 0.022, 0.001, 0.028, 0.0, 0.027, 0.0, 0.02, 0.0, 0.013, 0.0, 0.005, 0.007, 0.0, 0.013, 0.024, 0.015, 0.003, 0.013, 0.005, 0.02, 0.003, 0.03, 0.014, 0.019, 0.022, 0.018, 0.024, 0.0, 0.014, 0.005, 0.0, 0.004, 0.011, 0.001, 0.016, 0.001, 0.017, 0.003, 0.033, 0.0, 0.001, 0.0, 0.0, 0.0, 0.001, 0.013, 0.002, 0.008, 0.0, 0.002, 0.001, 0.01, 0.0, 0.0, 0.005, 0.008, 0.014, 0.012, 0.043, 0.013, 0.074, 0.011, 0.08, 0.001, 0.066, 0.0, 0.029, 0.0, 0.011, 0.0, 0.006, 0.0, 0.0, 0.0, 0.02, 0.004, 0.031, 0.015, 0.029, 0.003, 0.024, 0.001, 0.025, 0.001, 0.013, 0.001, 0.014, 0.002, 0.02, 0.0, 0.0, 0.0, 0.003, 0.0, 0.0
8.146878242492676, 1, 0.0, 0.007, 0.0, 0.005, 0.0, 0.0, 0.0, 0.011, 0.0, 0.0, 0.0, 0.008, 0.0, 0.004, 0.001, 0.0, 0.0, 0.008, 0.002, 0.01, 0.0, 0.0, 0.005, 0.0, 0.012, 0.002, 0.021, 0.026, 0.018, 0.029, 0.0, 0.022, 0.0, 0.015, 0.0, 0.0, 0.0, 0.006, 0.0, 0.0, 0.0, 0.004, 0.0, 0.0, 0.0, 0.007, 0.0, 0.006, 0.0, 0.01, 0.0, 0.021, 0.0, 0.029, 0.0, 0.039, 0.0, 0.035, 0.0, 0.057, 0.0, 0.031, 0.0, 0.016, 0.0, 0.029, 0.0, 0.005, 0.12, 0.004, 0.139, 0.006, 0.141, 0.0, 0.087, 0.025, 0.018, 0.034, 0.0, 0.033, 0.001, 0.04, 0.0, 0.023, 0.0, 0.027, 0.0, 0.032, 0.0, 0.043, 0.0, 0.032, 0.0, 0.007, 0.011, 0.0, 0.01, 0.0, 0.016, 0.006, 0.015, 0.023, 0.008, 0.03, 0.014, 0.031, 0.015, 0.033, 0.003, 0.027, 0.0, 0.027, 0.0, 0.026, 0.007, 0.005, 0.017, 0.014, 0.015, 0.0, 0.031, 0.03, 0.023, 0.031, 0.026, 0.03, 0.034, 0.101, 0.026, 0.075, 0.02, 0.096, 0.112, 0.098, 0.686, 0.214, 1.0, 1.0, 1.0, 1.0, 1.0, 1.0, 1.0, 1.0, 0.633, 0.817, 0.438, 0.516, 0.24, 0.276, 0.101, 0.126, 0.086, 0.115, 0.093, 0.094, 0.068, 0.071, 0.074, 0.038, 0.11, 0.019, 0.185, 0.185, 0.359, 0.444, 0.685, 0.862, 0.832, 0.96, 0.955, 0.761, 0.708, 0.409, 0.592, 0.26, 0.351, 0.115, 0.149, 0.096, 0.104, 0.079, 0.089, 0.075, 0.1, 0.074, 0.067, 0.019, 0.045, 0.0, 0.026, 0.0, 0.006, 0.001, 0.0, 0.01, 0.0, 0.014, 0.002, 0.014, 0.0, 0.005, 0.007, 0.019, 0.003, 0.0, 0.005, 0.001, 0.001, 0.0, 0.0, 0.0, 0.0, 0.003, 0.0, 0.003, 0.0, 0.0, 0.0, 0.008, 0.0, 0.005, 0.0, 0.014, 0.0, 0.0, 0.0, 0.0, 0.005, 0.005, 0.0, 0.01, 0.021, 0.082, 0.029, 0.11, 0.045, 0.155, 0.045, 0.121, 0.048, 0.126, 0.023, 0.046, 0.014, 0.029, 0.0, 0.0, 0.005, 0.013, 0.009, 0.033, 0.004, 0.045, 0.006, 0.067, 0.0, 0.041, 0.005, 0.033, 0.007, 0.015, 0.006, 0.001, 0.013, 0.0, 0.013, 0.0, 0.012, 0.0, 0.005, 0.008, 0.0, 0.0, 0.0, 0.018, 0.009, 0.067, 0.02, 0.07, 0.016, 0.082, 0.015, 0.054, 0.0, 0.019, 0.001, 0.023, 0.0, 0.014, 0.0, 0.002, 0.002, 0.0, 0.005, 0.0, 0.004, 0.004, 0.005, 0.009, 0.003, 0.005, 0.011, 0.022, 0.008, 0.018
10.19102168083191, 0, 0.01, 0.013, 0.0, 0.0, 0.007, 0.03, 0.014, 0.049, 0.014, 0.047, 0.003, 0.066, 0.003, 0.012, 0.0, 0.01, 0.009, 0.021, 0.001, 0.006, 0.007, 0.017, 0.011, 0.014, 0.0, 0.004, 0.006, 0.04, 0.005, 0.025, 0.0, 0.005, 0.006, 0.008, 0.0, 0.0, 0.005, 0.029, 0.001, 0.012, 0.004, 0.002, 0.001, 0.006, 0.0, 0.003, 0.0, 0.02, 0.002, 0.055, 0.0, 0.047, 0.012, 0.049, 0.012, 0.044, 0.02, 0.011, 0.019, 0.023, 0.015, 0.021, 0.015, 0.003, 0.014, 0.023, 0.028, 0.023, 0.029, 0.008, 0.029, 0.007, 0.023, 0.002, 0.0, 0.004, 0.007, 0.033, 0.003, 0.025, 0.0, 0.018, 0.0, 0.012, 0.0, 0.0, 0.001, 0.0, 0.0, 0.0, 0.0, 0.0, 0.0, 0.002, 0.001, 0.006, 0.008, 0.011, 0.014, 0.017, 0.009, 0.013
16.295087099075317, 2, 0.002, 0.025, 0.0, 0.018, 0.001, 0.0, 0.002, 0.0, 0.0, 0.027, 0.0, 0.034, 0.004, 0.062, 0.0, 0.064, 0.001, 0.017, 0.011, 0.026, 0.007, 0.003, 0.018, 0.008, 0.006, 0.0, 0.002, 0.004, 0.002, 0.0, 0.008, 0.004, 0.007, 0.012, 0.0, 0.013, 0.0, 0.018, 0.0, 0.015, 0.002, 0.005, 0.006, 0.017, 0.017, 0.02, 0.016, 0.002, 0.017, 0.0, 0.004, 0.0, 0.0, 0.012, 0.0, 0.004, 0.002, 0.0, 0.002, 0.004, 0.0, 0.001, 0.0, 0.0, 0.0, 0.0, 0.0, 0.003, 0.0, 0.004, 0.003, 0.023, 0.0, 0.025, 0.001, 0.03, 0.0, 0.027, 0.003, 0.013, 0.002, 0.017, 0.003, 0.025, 0.003, 0.012, 0.0, 0.02, 0.0, 0.01, 0.0, 0.002, 0.0, 0.013, 0.0, 0.0, 0.0, 0.0, 0.0, 0.01, 0.0, 0.0, 0.0, 0.02, 0.0, 0.014, 0.004, 0.0, 0.0, 0.004, 0.005, 0.005, 0.006, 0.0, 0.015, 0.012, 0.004, 0.025, 0.0, 0.01, 0.0, 0.009, 0.0, 0.0, 0.0, 0.0, 0.0, 0.019, 0.0, 0.007, 0.003, 0.014, 0.005, 0.021, 0.005, 0.022, 0.007, 0.042, 0.015, 0.062, 0.019, 0.068, 0.007, 0.058, 0.0, 0.036, 0.007, 0.068, 0.0, 0.076, 0.012, 0.097, 0.042, 0.207, 0.055, 0.193, 0.094, 0.214, 0.147, 0.33, 0.406, 0.67, 1.0, 1.0, 1.0, 1.0, 1.0, 1.0, 0.967, 0.904, 0.728, 0.739, 0.576, 0.659, 0.343, 0.387, 0.332, 0.378, 0.322, 0.271, 0.362, 0.355, 0.421, 0.394, 0.449, 0.59, 0.438, 0.592, 0.331, 0.577, 0.28, 0.429, 0.249, 0.263, 0.199, 0.116, 0.206, 0.07, 0.119, 0.034, 0.085, 0.017, 0.051, 0.011, 0.029, 0.005, 0.009, 0.0, 0.0, 0.006, 0.003, 0.03, 0.008, 0.019, 0.025, 0.037, 0.022, 0.021, 0.026, 0.026, 0.017, 0.029, 0.007, 0.029, 0.0, 0.007, 0.013, 0.023, 0.0, 0.001, 0.0, 0.005, 0.003, 0.0, 0.006, 0.003, 0.013, 0.01, 0.012, 0.0, 0.008, 0.0, 0.003, 0.011, 0.0, 0.001, 0.005, 0.012, 0.012, 0.011, 0.013, 0.0, 0.017, 0.015, 0.005, 0.0, 0.0, 0.0, 0.0, 0.004, 0.0, 0.0, 0.0, 0.0, 0.008, 0.0, 0.0, 0.0, 0.01, 0.0, 0.025, 0.037, 0.009, 0.033, 0.0, 0.038, 0.0, 0.025, 0.0, 0.0, 0.0, 0.0, 0.0, 0.0, 0.0, 0.001, 0.0, 0.004, 0.0, 0.0, 0.0, 0.0, 0.0, 0.0, 0.001, 0.0, 0.009, 0.026, 0.002, 0.036, 0.001, 0.042, 0.003, 0.033, 0.006, 0.005
18.3045597076416, 0, 0.001, 0.0, 0.0, 0.003, 0.0, 0.018, 0.0, 0.011, 0.0, 0.006, 0.0, 0.005, 0.0, 0.0, 0.002, 0.0, 0.007, 0.003, 0.015, 0.001, 0.008, 0.0, 0.0, 0.002, 0.0, 0.0, 0.003, 0.0, 0.009, 0.0, 0.009, 0.003, 0.007, 0.006, 0.0, 0.0, 0.001, 0.016, 0.0, 0.001, 0.0, 0.0, 0.0, 0.001, 0.0, 0.0, 0.0, 0.002, 0.0, 0.006, 0.0, 0.0, 0.0, 0.0, 0.0, 0.0, 0.0, 0.0, 0.0, 0.0, 0.0, 0.0, 0.001, 0.0, 0.0, 0.0, 0.0, 0.0, 0.001, 0.0, 0.0, 0.003, 0.004, 0.004, 0.0, 0.0, 0.0, 0.0, 0.0, 0.0, 0.0, 0.0, 0.0, 0.0, 0.0, 0.0, 0.0, 0.0, 0.0, 0.0, 0.0, 0.0, 0.0, 0.0, 0.0, 0.002, 0.0, 0.004, 0.0, 0.012
24.418790817260742, 3, 0.0, 0.0, 0.0, 0.0, 0.0, 0.0, 0.0, 0.0, 0.0, 0.0, 0.003, 0.0, 0.003, 0.0, 0.007, 0.0, 0.002, 0.0, 0.0, 0.0, 0.0, 0.0, 0.0, 0.0, 0.0, 0.0, 0.0, 0.0, 0.0, 0.0, 0.0, 0.0, 0.0, 0.0, 0.0, 0.0, 0.0, 0.0, 0.002, 0.0, 0.004, 0.0, 0.001, 0.0, 0.01, 0.0, 0.001, 0.0, 0.0, 0.004, 0.0, 0.001, 0.0, 0.0, 0.0, 0.0, 0.0, 0.0, 0.0, 0.0, 0.0, 0.0, 0.0, 0.0, 0.0, 0.0, 0.001, 0.01, 0.0, 0.005, 0.002, 0.0, 0.002, 0.0, 0.006, 0.0, 0.019, 0.001, 0.027, 0.013, 0.029, 0.008, 0.015, 0.02, 0.001, 0.003, 0.0, 0.003, 0.003, 0.006, 0.0, 0.0, 0.0, 0.005, 0.0, 0.007, 0.0, 0.01, 0.0, 0.01, 0.002, 0.014, 0.0, 0.011, 0.007, 0.02, 0.001, 0.019, 0.0, 0.011, 0.0, 0.007, 0.007, 0.002, 0.011, 0.013, 0.013, 0.014, 0.002, 0.026, 0.0, 0.009, 0.007, 0.0, 0.012, 0.023, 0.016, 0.048, 0.027, 0.103, 0.019, 0.097, 0.012, 0.128, 0.037, 0.123, 0.048, 0.079, 0.063, 0.082, 0.543, 0.339, 0.831, 0.539, 1.0, 0.762, 0.954, 0.715, 0.772, 0.581, 0.529, 0.507, 0.478, 0.502, 0.436, 0.572, 0.385, 0.495, 0.293, 0.218, 0.213, 0.147, 0.194, 0.024, 0.109, 0.009, 0.072, 0.018, 0.055, 0.005, 0.03, 0.007, 0.021, 0.0, 0.001, 0.005, 0.0, 0.0, 0.004, 0.003, 0.004, 0.01, 0.0, 0.005, 0.0, 0.017, 0.0, 0.0, 0.0, 0.0, 0.003, 0.0, 0.005, 0.0, 0.005, 0.007, 0.0, 0.007, 0.0, 0.013, 0.0, 0.002, 0.0, 0.005, 0.0, 0.005, 0.0, 0.008, 0.0, 0.007, 0.0, 0.0, 0.0, 0.0, 0.0, 0.0, 0.0, 0.0, 0.0, 0.0, 0.0, 0.0, 0.0, 0.0, 0.0, 0.0, 0.002, 0.0, 0.0, 0.003, 0.001, 0.0, 0.002, 0.002, 0.0, 0.003, 0.0, 0.002, 0.0, 0.021, 0.0, 0.015, 0.0, 0.011, 0.0, 0.013, 0.0, 0.0, 0.0, 0.006, 0.009, 0.024, 0.014, 0.027, 0.013, 0.021, 0.008, 0.003, 0.0, 0.0, 0.0, 0.0, 0.0, 0.0, 0.0, 0.0, 0.0, 0.0, 0.0, 0.0, 0.0, 0.0, 0.008, 0.0, 0.0, 0.0, 0.0, 0.0, 0.0, 0.011, 0.0, 0.015, 0.0, 0.016, 0.0, 0.011, 0.0, 0.0, 0.0, 0.0, 0.0, 0.0, 0.0, 0.0, 0.0, 0.0, 0.007, 0.0, 0.009, 0.004, 0.007, 0.003, 0.0, 0.002, 0.001, 0.0
26.461873769760132, 0, 0.0, 0.0, 0.0, 0.0, 0.0, 0.0, 0.0, 0.005, 0.0, 0.0, 0.005, 0.002, 0.004, 0.0, 0.0, 0.0, 0.0, 0.0, 0.0, 0.001, 0.0, 0.011, 0.0, 0.015, 0.0, 0.015, 0.001, 0.0, 0.007, 0.002, 0.008, 0.0, 0.0, 0.0, 0.0, 0.001, 0.0, 0.0, 0.0, 0.004, 0.0, 0.006, 0.0, 0.005, 0.0, 0.0, 0.0, 0.01, 0.0, 0.0, 0.0, 0.0, 0.0, 0.0, 0.0, 0.0, 0.0, 0.0, 0.0, 0.0, 0.004, 0.0, 0.012, 0.0, 0.011, 0.0, 0.007, 0.0, 0.0, 0.007, 0.0, 0.008, 0.0, 0.002, 0.0, 0.0, 0.0, 0.001, 0.0, 0.012, 0.0, 0.015, 0.0, 0.01, 0.0, 0.001, 0.0, 0.0, 0.0, 0.0, 0.0, 0.0, 0.0, 0.0, 0.001, 0.0, 0.0, 0.0, 0.0, 0.0, 0.001, 0.0
32.57784056663513, 4, 0.0, 0.0, 0.0, 0.0, 0.0, 0.0, 0.0, 0.0, 0.0, 0.0, 0.0, 0.0, 0.0, 0.0, 0.0, 0.0, 0.0, 0.0, 0.0, 0.003, 0.0, 0.006, 0.0, 0.0, 0.0, 0.0, 0.0, 0.0, 0.0, 0.0, 0.0, 0.005, 0.009, 0.008, 0.009, 0.014, 0.0, 0.016, 0.002, 0.003, 0.0, 0.001, 0.0, 0.0, 0.0, 0.002, 0.0, 0.006, 0.0, 0.0, 0.0, 0.003, 0.0, 0.0, 0.0, 0.0, 0.0, 0.0, 0.0, 0.0, 0.0, 0.0, 0.004, 0.0, 0.001, 0.0, 0.0, 0.0, 0.0, 0.01, 0.0, 0.004, 0.0, 0.004, 0.0, 0.0, 0.0, 0.008, 0.0, 0.007, 0.0, 0.005, 0.0, 0.003, 0.0, 0.0, 0.0, 0.0, 0.0, 0.0, 0.0, 0.0, 0.0, 0.0, 0.0, 0.0, 0.0, 0.001, 0.0, 0.002, 0.0, 0.0, 0.0, 0.002, 0.0, 0.0, 0.001, 0.0, 0.006, 0.0, 0.006, 0.0, 0.0, 0.0, 0.0, 0.0, 0.0, 0.0, 0.0, 0.0, 0.0, 0.0, 0.0, 0.003, 0.0, 0.0, 0.0, 0.0, 0.0, 0.0, 0.0, 0.005, 0.008, 0.003, 0.027, 0.013, 0.04, 0.026, 0.168, 0.133, 0.335, 0.752, 0.783, 1.0, 1.0, 1.0, 1.0, 0.949, 0.87, 0.746, 0.907, 0.585, 0.733, 0.645, 0.624, 0.667, 0.621, 0.694, 0.666, 0.603, 0.936, 0.735, 1.0, 0.811, 1.0, 0.911, 0.984, 0.855, 0.528, 0.45, 0.401, 0.277, 0.249, 0.127, 0.076, 0.1, 0.131, 0.109, 0.142, 0.112, 0.121, 0.109, 0.094, 0.091, 0.071, 0.076, 0.013, 0.039, 0.019, 0.047, 0.0, 0.039, 0.003, 0.049, 0.015, 0.098, 0.0, 0.063, 0.0, 0.045, 0.0, 0.042, 0.001, 0.0, 0.001, 0.0, 0.003, 0.0, 0.007, 0.0, 0.008, 0.0, 0.001, 0.009, 0.0, 0.007, 0.0, 0.012, 0.0, 0.005, 0.002, 0.006, 0.001, 0.008, 0.001, 0.005, 0.002, 0.005, 0.0, 0.0, 0.0, 0.0, 0.0, 0.0, 0.0, 0.0, 0.0, 0.0, 0.0, 0.0, 0.0, 0.0, 0.0, 0.0, 0.0, 0.004, 0.0, 0.0, 0.0, 0.0, 0.0, 0.0, 0.003, 0.0, 0.009, 0.0, 0.025, 0.0, 0.017, 0.0, 0.0, 0.0, 0.0, 0.0, 0.0, 0.0, 0.0, 0.0, 0.004, 0.005, 0.0, 0.018, 0.005, 0.018, 0.002, 0.014, 0.007, 0.009, 0.003, 0.005, 0.0, 0.006, 0.002, 0.018, 0.0, 0.014, 0.0, 0.008, 0.001, 0.0, 0.003, 0.0, 0.004, 0.012, 0.002, 0.006, 0.007, 0.02, 0.003, 0.005, 0.001, 0.0, 0.0, 0.004, 0.0, 0.0
34.61164355278015, 0, 0.0, 0.006, 0.0, 0.009, 0.0, 0.0, 0.0, 0.003, 0.0, 0.0, 0.0, 0.001, 0.006, 0.004, 0.01, 0.0, 0.0, 0.0, 0.0, 0.0, 0.0, 0.0, 0.01, 0.0, 0.008, 0.009, 0.009, 0.015, 0.0, 0.016, 0.0, 0.025, 0.0, 0.017, 0.002, 0.005, 0.003, 0.009, 0.005, 0.0, 0.003, 0.0, 0.0, 0.0, 0.0, 0.0, 0.0, 0.0, 0.0, 0.003, 0.0, 0.0, 0.0, 0.0, 0.0, 0.0, 0.0, 0.0, 0.0, 0.005, 0.013, 0.007, 0.042, 0.004, 0.041, 0.019, 0.044, 0.009, 0.018, 0.01, 0.0, 0.0, 0.0, 0.0, 0.0, 0.0, 0.0, 0.002, 0.0, 0.0, 0.0, 0.013, 0.0, 0.016, 0.0, 0.003, 0.0, 0.007, 0.0, 0.0, 0.012, 0.0, 0.011, 0.004, 0.014, 0.001, 0.003, 0.005, 0.006, 0.019, 0.008, 0.016
40.691383838653564, 5, 0.006, 0.007, 0.0, 0.003, 0.0, 0.0, 0.001, 0.0, 0.0, 0.0, 0.0, 0.0, 0.0, 0.0, 0.0, 0.0, 0.0, 0.0, 0.0, 0.0, 0.0, 0.0, 0.0, 0.0, 0.0, 0.0, 0.0, 0.001, 0.0, 0.0, 0.0, 0.0, 0.0, 0.0, 0.0, 0.0, 0.0, 0.0, 0.0, 0.001, 0.0, 0.0, 0.0, 0.005, 0.0, 0.001, 0.0, 0.003, 0.0, 0.004, 0.0, 0.0, 0.0, 0.0, 0.0, 0.0, 0.0, 0.0, 0.006, 0.0, 0.0, 0.0, 0.005, 0.0, 0.004, 0.003, 0.002, 0.0, 0.014, 0.002, 0.01, 0.0, 0.017, 0.004, 0.021, 0.002, 0.0, 0.003, 0.0, 0.0, 0.0, 0.004, 0.0, 0.008, 0.0, 0.0, 0.0, 0.0, 0.003, 0.0, 0.0, 0.0, 0.008, 0.001, 0.006, 0.003, 0.003, 0.007, 0.005, 0.004, 0.006, 0.005, 0.009, 0.001, 0.007, 0.004, 0.0, 0.0, 0.0, 0.001, 0.0, 0.003, 0.0, 0.001, 0.0, 0.003, 0.0, 0.0, 0.0, 0.002, 0.002, 0.005, 0.0, 0.004, 0.0, 0.016, 0.0, 0.032, 0.107, 0.152, 0.217, 0.211, 0.545, 0.269, 1.0, 0.296, 1.0, 0.352, 0.939, 0.424, 0.997, 0.504, 1.0, 0.461, 0.758, 0.486, 0.597, 0.497, 0.675, 0.569, 0.733, 0.683, 0.781, 0.73, 1.0, 0.897, 0.943, 0.911, 0.841, 0.817, 0.917, 0.763, 0.647, 0.608, 0.481, 0.527, 0.347, 0.541, 0.202, 0.542, 0.198, 0.593, 0.21, 0.619, 0.219, 0.58, 0.185, 0.473, 0.147, 0.42, 0.078, 0.267, 0.048, 0.229, 0.037, 0.209, 0.031, 0.27, 0.028, 0.228, 0.023, 0.194, 0.032, 0.219, 0.032, 0.134, 0.014, 0.13, 0.007, 0.129, 0.0, 0.082, 0.0, 0.062, 0.008, 0.033, 0.008, 0.054, 0.013, 0.031, 0.006, 0.014, 0.0, 0.0, 0.0, 0.019, 0.0, 0.0, 0.0, 0.029, 0.002, 0.033, 0.021, 0.036, 0.033, 0.02, 0.047, 0.106, 0.049, 0.118, 0.018, 0.088, 0.011, 0.053, 0.003, 0.0, 0.001, 0.0, 0.0, 0.001, 0.006, 0.028, 0.006, 0.032, 0.0, 0.05, 0.003, 0.031, 0.0, 0.026, 0.0, 0.001, 0.0, 0.02, 0.0, 0.021, 0.0, 0.013, 0.003, 0.022, 0.01, 0.012, 0.009, 0.0, 0.0, 0.017, 0.0, 0.0, 0.0, 0.0, 0.003, 0.015, 0.007, 0.024, 0.005, 0.019, 0.003, 0.0, 0.008, 0.015, 0.0, 0.0, 0.008, 0.006, 0.004, 0.005, 0.004, 0.0, 0.0, 0.006, 0.009, 0.023, 0.003, 0.037, 0.002, 0.017, 0.0, 0.014, 0.0, 0.0, 0.0, 0.0, 0.0, 0.007
42.733219385147095, 0, 0.0, 0.014, 0.0, 0.001, 0.0, 0.002, 0.0, 0.003, 0.0, 0.004, 0.001, 0.001, 0.012, 0.014, 0.017, 0.014, 0.002, 0.014, 0.0, 0.016, 0.001, 0.011, 0.0, 0.017, 0.0, 0.0, 0.0, 0.0, 0.0, 0.004, 0.0, 0.006, 0.0, 0.015, 0.0, 0.019, 0.0, 0.016, 0.0, 0.016, 0.0, 0.013, 0.0, 0.016, 0.0, 0.016, 0.004, 0.01, 0.013, 0.029, 0.008, 0.018, 0.002, 0.032, 0.002, 0.033, 0.0, 0.02, 0.0, 0.015, 0.0, 0.0, 0.0, 0.003, 0.0, 0.0, 0.0, 0.004, 0.0, 0.013, 0.0, 0.017, 0.0, 0.016, 0.0, 0.025, 0.0, 0.019, 0.0, 0.017, 0.0, 0.009, 0.0, 0.0, 0.0, 0.007, 0.0, 0.006, 0.0, 0.014, 0.0, 0.033, 0.0, 0.057, 0.0, 0.052, 0.0, 0.049, 0.0, 0.042, 0.0, 0.013
48.79603886604309, 1, 0.0, 0.012, 0.0, 0.0, 0.0, 0.011, 0.0, 0.004, 0.0, 0.009, 0.0, 0.007, 0.0, 0.0, 0.0, 0.025, 0.0, 0.022, 0.0, 0.02, 0.0, 0.0, 0.0, 0.0, 0.0, 0.0, 0.0, 0.0, 0.003, 0.004, 0.001, 0.007, 0.002, 0.027, 0.0, 0.034, 0.0, 0.041, 0.008, 0.034, 0.002, 0.038, 0.003, 0.044, 0.0, 0.037, 0.003, 0.022, 0.0, 0.001, 0.0, 0.0, 0.0, 0.0, 0.0, 0.002, 0.0, 0.0, 0.0, 0.002, 0.001, 0.004, 0.004, 0.005, 0.0, 0.01, 0.001, 0.015, 0.0, 0.006, 0.0, 0.008, 0.0, 0.011, 0.0, 0.009, 0.0, 0.011, 0.0, 0.0, 0.0, 0.0, 0.0, 0.0, 0.001, 0.006, 0.003, 0.003, 0.0, 0.003, 0.001, 0.021, 0.0, 0.013, 0.0, 0.042, 0.0, 0.082, 0.0, 0.11, 0.0, 0.125, 0.0, 0.112, 0.0, 0.007, 0.0, 0.021, 0.0, 0.007, 0.0, 0.018, 0.0, 0.024, 0.0, 0.016, 0.0, 0.003, 0.0, 0.023, 0.0, 0.04, 0.0, 0.037, 0.002, 0.058, 0.002, 0.022, 0.0, 0.015, 0.013, 0.024, 0.114, 0.029, 0.883, 0.246, 1.0, 1.0, 1.0, 1.0, 0.999, 1.0, 0.878, 0.984, 0.544, 0.61, 0.344, 0.348, 0.257, 0.17, 0.188, 0.097, 0.151, 0.071, 0.116, 0.057, 0.078, 0.032, 0.163, 0.134, 0.451, 0.39, 0.807, 0.755, 0.999, 0.838, 0.955, 0.738, 0.691, 0.384, 0.579, 0.22, 0.343, 0.127, 0.164, 0.089, 0.104, 0.059, 0.075, 0.051, 0.065, 0.002, 0.06, 0.029, 0.061, 0.042, 0.039, 0.045, 0.023, 0.028, 0.004, 0.0, 0.0, 0.0, 0.0, 0.0, 0.002, 0.003, 0.002, 0.004, 0.0, 0.003, 0.0, 0.0, 0.001, 0.012, 0.002, 0.013, 0.003, 0.02, 0.0, 0.016, 0.0, 0.023, 0.001, 0.018, 0.001, 0.014, 0.0, 0.01, 0.0, 0.0, 0.006, 0.0, 0.012, 0.014, 0.014, 0.012, 0.025, 0.022, 0.024, 0.022, 0.021, 0.0, 0.016, 0.0, 0.008, 0.0, 0.0, 0.007, 0.0, 0.0, 0.005, 0.0, 0.009, 0.026, 0.013, 0.03, 0.017, 0.061, 0.018, 0.079, 0.015, 0.065, 0.018, 0.07, 0.012, 0.06, 0.0, 0.032, 0.0, 0.047, 0.002, 0.077, 0.0, 0.064, 0.003, 0.079, 0.0, 0.002, 0.003, 0.0, 0.005, 0.003, 0.007, 0.003, 0.004, 0.0, 0.0, 0.0, 0.0, 0.038, 0.0, 0.038, 0.0, 0.07, 0.011, 0.115, 0.018, 0.1, 0.009, 0.092, 0.008, 0.066, 0.0, 0.035, 0.0, 0.034, 0.0, 0.015, 0.002, 0.009, 0.016, 0.034
50.798115968704224, 0, 0.021, 0.015, 0.01, 0.0, 0.005, 0.0, 0.0, 0.0, 0.015, 0.045, 0.018, 0.054, 0.014, 0.059, 0.026, 0.052, 0.003, 0.01, 0.01, 0.047, 0.005, 0.022, 0.005, 0.062, 0.003, 0.053, 0.007, 0.016, 0.001, 0.03, 0.0, 0.0, 0.006, 0.0, 0.001, 0.0, 0.003, 0.014, 0.0, 0.028, 0.002, 0.0, 0.0, 0.0, 0.0, 0.0, 0.0, 0.018, 0.0, 0.039, 0.0, 0.043, 0.005, 0.024, 0.0, 0.03, 0.0, 0.039, 0.0, 0.053, 0.0, 0.093, 0.005, 0.064, 0.005, 0.035, 0.014, 0.032, 0.03, 0.014, 0.033, 0.0, 0.038, 0.006, 0.02, 0.0, 0.016, 0.0, 0.017, 0.034, 0.0, 0.066, 0.0, 0.036, 0.004, 0.012, 0.001, 0.019, 0.002, 0.013, 0.001, 0.065, 0.002, 0.045, 0.005, 0.0, 0.011, 0.0, 0.007, 0.011
56.87076926231384, 2, 0.013, 0.07, 0.019, 0.08, 0.017, 0.086, 0.015, 0.035, 0.003, 0.007, 0.0, 0.0, 0.0, 0.0, 0.002, 0.0, 0.012, 0.024, 0.007, 0.024, 0.005, 0.002, 0.004, 0.037, 0.0, 0.002, 0.0, 0.0, 0.0, 0.005, 0.0, 0.027, 0.002, 0.019, 0.009, 0.011, 0.002, 0.018, 0.0, 0.0, 0.003, 0.012, 0.02, 0.014, 0.018, 0.0, 0.023, 0.01, 0.002, 0.0, 0.0, 0.008, 0.0, 0.027, 0.003, 0.074, 0.005, 0.074, 0.002, 0.054, 0.0, 0.014, 0.0, 0.003, 0.0, 0.0, 0.0, 0.0, 0.012, 0.031, 0.018, 0.044, 0.019, 0.039, 0.011, 0.065, 0.002, 0.018, 0.005, 0.005, 0.0, 0.0, 0.002, 0.0, 0.0, 0.0, 0.0, 0.021, 0.0, 0.035, 0.004, 0.03, 0.004, 0.05, 0.0, 0.04, 0.002, 0.03, 0.0, 0.005, 0.0, 0.0, 0.0, 0.035, 0.0, 0.03, 0.0, 0.035, 0.0, 0.028, 0.0, 0.0, 0.0, 0.014, 0.0, 0.022, 0.021, 0.039, 0.013, 0.054, 0.027, 0.059, 0.023, 0.048, 0.008, 0.04, 0.015, 0.03, 0.0, 0.039, 0.032, 0.149, 0.237, 0.537, 1.0, 1.0, 1.0, 1.0, 1.0, 1.0, 0.937, 0.899, 0.675, 0.823, 0.695, 0.684, 0.535, 0.693, 0.543, 0.866, 0.493, 0.952, 0.499, 0.94, 0.499, 0.884, 0.509, 0.791, 0.51, 0.815, 0.429, 0.6, 0.443, 0.596, 0.302, 0.385, 0.294, 0.372, 0.247, 0.22, 0.259, 0.124, 0.232, 0.029, 0.246, 0.03, 0.237, 0.063, 0.241, 0.044, 0.235, 0.033, 0.18, 0.05, 0.131, 0.02, 0.05, 0.072, 0.062, 0.039, 0.074, 0.023, 0.068, 0.018, 0.032, 0.0, 0.004, 0.0, 0.0, 0.0, 0.004, 0.014, 0.005, 0.023, 0.009, 0.064, 0.013, 0.092, 0.027, 0.099, 0.029, 0.11, 0.024, 0.107, 0.044, 0.15, 0.03, 0.108, 0.026, 0.111, 0.003, 0.071, 0.0, 0.0, 0.0, 0.007, 0.005, 0.0, 0.019, 0.0, 0.027, 0.052, 0.036, 0.057, 0.039, 0.088, 0.023, 0.139, 0.027, 0.121, 0.0, 0.141, 0.002, 0.133, 0.0, 0.088, 0.005, 0.079, 0.002, 0.059, 0.005, 0.045, 0.014, 0.042, 0.0, 0.016, 0.014, 0.008, 0.006, 0.036, 0.001, 0.044, 0.001, 0.045, 0.0, 0.011, 0.003, 0.0, 0.011, 0.0, 0.014, 0.0, 0.011, 0.019, 0.008, 0.028, 0.014, 0.019, 0.002, 0.01, 0.004, 0.0, 0.0, 0.0, 0.0, 0.0, 0.0, 0.0, 0.0, 0.0, 0.0, 0.004, 0.0, 0.014, 0.0, 0.021, 0.0, 0.024, 0.0, 0.013, 0.0, 0.005, 0.011, 0.005
58.91576886177063, 0, 0.022, 0.0, 0.018, 0.019, 0.008, 0.004, 0.0, 0.017, 0.0, 0.004, 0.0, 0.005, 0.0, 0.003, 0.011, 0.0, 0.015, 0.004, 0.01, 0.015, 0.002, 0.023, 0.0, 0.024, 0.0, 0.031, 0.004, 0.01, 0.0, 0.0, 0.0, 0.0, 0.0, 0.02, 0.0, 0.024, 0.0, 0.017, 0.0, 0.017, 0.0, 0.001, 0.0, 0.001, 0.0, 0.0, 0.001, 0.009, 0.0, 0.009, 0.0, 0.009, 0.0, 0.003, 0.0, 0.0, 0.006, 0.002, 0.005, 0.011, 0.005, 0.011, 0.0, 0.004, 0.0, 0.002, 0.0, 0.006, 0.0, 0.019, 0.0, 0.015, 0.0, 0.015, 0.0, 0.007, 0.0, 0.0, 0.0, 0.0, 0.004, 0.003, 0.004, 0.0, 0.0, 0.002, 0.0, 0.031, 0.003, 0.019, 0.015, 0.037, 0.008, 0.042, 0.009, 0.001, 0.0, 0.0, 0.0, 0.005, 0.0, 0.002
65.02756118774414, 3, 0.0, 0.009, 0.003, 0.004, 0.0, 0.006, 0.007, 0.02, 0.0, 0.032, 0.003, 0.022, 0.0, 0.0, 0.0, 0.0, 0.0, 0.0, 0.0, 0.002, 0.0, 0.024, 0.0, 0.03, 0.001, 0.044, 0.015, 0.063, 0.007, 0.033, 0.004, 0.026, 0.005, 0.024, 0.0, 0.008, 0.0, 0.015, 0.125, 0.024, 0.153, 0.035, 0.191, 0.027, 0.197, 0.036, 0.046, 0.019, 0.027, 0.019, 0.0, 0.006, 0.0, 0.0, 0.0, 0.002, 0.0, 0.009, 0.0, 0.018, 0.0, 0.025, 0.0, 0.039, 0.0, 0.036, 0.0, 0.046, 0.002, 0.035, 0.006, 0.028, 0.0, 0.009, 0.004, 0.009, 0.0, 0.016, 0.0, 0.0, 0.0, 0.001, 0.0, 0.008, 0.0, 0.009, 0.0, 0.021, 0.0, 0.037, 0.0, 0.034, 0.0, 0.031, 0.0, 0.035, 0.0, 0.006, 0.0, 0.006, 0.015, 0.016, 0.021, 0.034, 0.017, 0.025, 0.002, 0.015, 0.0, 0.0, 0.0, 0.015, 0.0, 0.013, 0.0, 0.022, 0.0, 0.012, 0.0, 0.013, 0.0, 0.036, 0.0, 0.027, 0.0, 0.044, 0.0, 0.033, 0.0, 0.037, 0.001, 0.063, 0.009, 0.053, 0.006, 0.049, 0.014, 0.043, 0.01, 0.042, 0.086, 0.106, 0.305, 0.333, 0.953, 0.777, 1.0, 0.888, 1.0, 0.886, 0.9, 0.731, 0.985, 0.538, 0.788, 0.474, 0.685, 0.554, 0.454, 0.448, 0.413, 0.586, 0.335, 0.572, 0.405, 0.652, 0.537, 0.891, 0.563, 1.0, 0.605, 1.0, 0.702, 0.942, 0.572, 0.727, 0.575, 0.423, 0.476, 0.138, 0.278, 0.064, 0.208, 0.041, 0.188, 0.041, 0.154, 0.074, 0.086, 0.048, 0.035, 0.058, 0.0, 0.043, 0.003, 0.012, 0.007, 0.014, 0.0, 0.018, 0.0, 0.028, 0.022, 0.065, 0.027, 0.063, 0.041, 0.086, 0.04, 0.076, 0.033, 0.053, 0.044, 0.081, 0.038, 0.038, 0.053, 0.044, 0.039, 0.041, 0.0, 0.0, 0.0, 0.005, 0.0, 0.0, 0.014, 0.007, 0.015, 0.021, 0.009, 0.006, 0.007, 0.005, 0.0, 0.031, 0.002, 0.031, 0.014, 0.058, 0.017, 0.067, 0.032, 0.003, 0.029, 0.017, 0.03, 0.018, 0.029, 0.022, 0.019, 0.069, 0.012, 0.054, 0.0, 0.057, 0.0, 0.039, 0.0, 0.022, 0.003, 0.025, 0.004, 0.006, 0.034, 0.057, 0.031, 0.029, 0.023, 0.034, 0.027, 0.014, 0.001, 0.01, 0.005, 0.006, 0.0, 0.001, 0.006, 0.0, 0.02, 0.011, 0.017, 0.019, 0.025, 0.024, 0.001, 0.011, 0.0, 0.002, 0.0, 0.0, 0.0, 0.023, 0.002, 0.025, 0.0, 0.036, 0.001, 0.025, 0.0, 0.007, 0.0, 0.0, 0.0, 0.007
67.03170728683472, 0, 0.0, 0.015, 0.0, 0.001, 0.0, 0.015, 0.005, 0.007, 0.008, 0.0, 0.011, 0.0, 0.013, 0.001, 0.016, 0.0, 0.008, 0.027, 0.0, 0.012, 0.0, 0.007, 0.0, 0.01, 0.01, 0.0, 0.012, 0.017, 0.007, 0.019, 0.003, 0.021, 0.0, 0.01, 0.001, 0.024, 0.0, 0.012, 0.0, 0.002, 0.0, 0.0, 0.0, 0.0, 0.01, 0.0, 0.009, 0.0, 0.013, 0.022, 0.011, 0.022, 0.0, 0.032, 0.0, 0.036, 0.0, 0.026, 0.0, 0.021, 0.011, 0.029, 0.01, 0.016, 0.009, 0.019, 0.0, 0.018, 0.0, 0.013, 0.0, 0.019, 0.0, 0.018, 0.0, 0.026, 0.0, 0.014, 0.002, 0.01, 0.0, 0.009, 0.004, 0.003, 0.0, 0.012, 0.0, 0.002, 0.0, 0.0, 0.0, 0.003, 0.0, 0.022, 0.0, 0.033, 0.003, 0.047, 0.006, 0.047
73.11248922348022, 4, 0.0, 0.03, 0.0, 0.014, 0.0, 0.011, 0.0, 0.013, 0.0, 0.0, 0.0, 0.012, 0.0, 0.037, 0.0, 0.074, 0.0, 0.088, 0.0, 0.078, 0.0, 0.068, 0.017, 0.04, 0.015, 0.04, 0.014, 0.027, 0.003, 0.049, 0.006, 0.05, 0.0, 0.028, 0.0, 0.028, 0.0, 0.0, 0.0, 0.0, 0.0, 0.0, 0.0, 0.008, 0.0, 0.0, 0.0, 0.005, 0.0, 0.0, 0.004, 0.0, 0.007, 0.006, 0.002, 0.0, 0.001, 0.012, 0.002, 0.001, 0.004, 0.0, 0.014, 0.021, 0.006, 0.01, 0.0, 0.012, 0.0, 0.02, 0.0, 0.02, 0.001, 0.026, 0.006, 0.013, 0.004, 0.0, 0.014, 0.012, 0.004, 0.007, 0.0, 0.01, 0.0, 0.0, 0.0, 0.0, 0.0, 0.0, 0.0, 0.0, 0.0, 0.013, 0.0, 0.018, 0.0, 0.028, 0.0, 0.03, 0.003, 0.019, 0.0, 0.011, 0.0, 0.011, 0.0, 0.024, 0.0, 0.027, 0.0, 0.022, 0.0, 0.001, 0.0, 0.007, 0.0, 0.005, 0.0, 0.031, 0.0, 0.036, 0.0, 0.029, 0.012, 0.029, 0.043, 0.061, 0.692, 0.453, 0.997, 0.73, 1.0, 1.0, 1.0, 1.0, 0.808, 1.0, 0.725, 0.929, 0.736, 0.753, 0.716, 0.785, 0.83, 0.695, 1.0, 0.747, 0.943, 0.594, 0.761, 0.417, 0.553, 0.368, 0.417, 0.524, 0.348, 0.51, 0.55, 0.488, 0.512, 0.39, 0.461, 0.19, 0.391, 0.186, 0.174, 0.156, 0.161, 0.09, 0.111, 0.071, 0.083, 0.045, 0.04, 0.04, 0.032, 0.031, 0.029, 0.018, 0.028, 0.046, 0.029, 0.053, 0.004, 0.067, 0.025, 0.058, 0.004, 0.019, 0.009, 0.012, 0.0, 0.0, 0.0, 0.0, 0.006, 0.002, 0.01, 0.0, 0.0, 0.001, 0.0, 0.001, 0.0, 0.005, 0.002, 0.0, 0.0, 0.0, 0.0, 0.0, 0.002, 0.009, 0.002, 0.0, 0.001, 0.0, 0.005, 0.003, 0.004, 0.012, 0.0, 0.027, 0.0, 0.025, 0.003, 0.026, 0.0, 0.0, 0.0, 0.001, 0.0, 0.004, 0.0, 0.007, 0.0, 0.004, 0.0, 0.021, 0.0, 0.007, 0.0, 0.001, 0.0, 0.012, 0.0, 0.0, 0.01, 0.016, 0.017, 0.011, 0.02, 0.006, 0.014, 0.0, 0.0, 0.0, 0.0, 0.003, 0.0, 0.021, 0.0, 0.029, 0.0, 0.036, 0.008, 0.035, 0.012, 0.029, 0.007, 0.012, 0.008, 0.036, 0.001, 0.021, 0.0, 0.02, 0.0, 0.013, 0.0, 0.006, 0.0, 0.026, 0.0, 0.028, 0.0, 0.029, 0.0, 0.023, 0.001, 0.004, 0.0, 0.0, 0.005, 0.0, 0.002, 0.0, 0.001, 0.029, 0.0, 0.053, 0.0, 0.034
75.15277409553528, 0, 0.0, 0.043, 0.0, 0.01, 0.0, 0.008, 0.0, 0.019, 0.0, 0.005, 0.006, 0.006, 0.004, 0.0, 0.004, 0.004, 0.01, 0.007, 0.007, 0.005, 0.0, 0.007, 0.001, 0.006, 0.0, 0.003, 0.0, 0.006, 0.0, 0.02, 0.0, 0.024, 0.0, 0.015, 0.0, 0.009, 0.0, 0.034, 0.0, 0.012, 0.0, 0.007, 0.0, 0.0, 0.0, 0.0, 0.0, 0.0, 0.0, 0.0, 0.0, 0.0, 0.0, 0.008, 0.0, 0.034, 0.006, 0.028, 0.001, 0.034, 0.01, 0.042, 0.005, 0.023, 0.0, 0.026, 0.0, 0.02, 0.0, 0.02, 0.0, 0.025, 0.0, 0.019, 0.003, 0.029, 0.008, 0.016, 0.006, 0.014, 0.001, 0.017, 0.0, 0.03, 0.0, 0.017, 0.002, 0.018, 0.011, 0.013, 0.012, 0.014, 0.01, 0.014, 0.0, 0.0, 0.0, 0.009, 0.0, 0.005, 0.0, 0.006
81.22796750068665, 5, 0.0, 0.004, 0.0, 0.012, 0.0, 0.0, 0.0, 0.002, 0.0, 0.015, 0.0, 0.0, 0.0, 0.006, 0.0, 0.023, 0.0, 0.005, 0.005, 0.017, 0.006, 0.01, 0.009, 0.001, 0.013, 0.027, 0.001, 0.021, 0.006, 0.016, 0.0, 0.025, 0.0, 0.007, 0.0, 0.023, 0.0, 0.015, 0.0, 0.003, 0.0, 0.0, 0.0, 0.02, 0.0, 0.016, 0.0, 0.015, 0.0, 0.018, 0.0, 0.0, 0.0, 0.003, 0.0, 0.0, 0.0, 0.0, 0.0, 0.002, 0.0, 0.012, 0.0, 0.028, 0.0, 0.013, 0.004, 0.006, 0.012, 0.007, 0.003, 0.001, 0.0, 0.004, 0.0, 0.018, 0.0, 0.012, 0.0, 0.008, 0.0, 0.001, 0.011, 0.0, 0.016, 0.0, 0.011, 0.015, 0.006, 0.017, 0.0, 0.016, 0.0, 0.032, 0.0, 0.014, 0.0, 0.046, 0.0, 0.068, 0.0, 0.059, 0.0, 0.055, 0.0, 0.02, 0.0, 0.005, 0.0, 0.0, 0.0, 0.021, 0.0, 0.022, 0.0, 0.003, 0.0, 0.009, 0.0, 0.0, 0.0, 0.004, 0.0, 0.013, 0.0, 0.021, 0.0, 0.043, 0.022, 0.032, 0.043, 0.046, 0.189, 0.128, 0.725, 0.246, 1.0, 0.574, 1.0, 0.885, 1.0, 1.0, 0.982, 1.0, 0.926, 0.894, 0.809, 0.709, 0.682, 0.62, 0.749, 0.49, 0.625, 0.421, 0.598, 0.327, 0.501, 0.271, 0.431, 0.272, 0.576, 0.304, 0.852, 0.445, 1.0, 0.531, 0.963, 0.567, 0.651, 0.558, 0.39, 0.59, 0.314, 0.766, 0.368, 0.85, 0.534, 0.772, 0.581, 0.626, 0.462, 0.451, 0.286, 0.211, 0.195, 0.191, 0.099, 0.114, 0.081, 0.076, 0.095, 0.104, 0.059, 0.152, 0.057, 0.206, 0.031, 0.177, 0.017, 0.152, 0.004, 0.141, 0.0, 0.085, 0.0, 0.08, 0.0, 0.051, 0.003, 0.119, 0.006, 0.097, 0.002, 0.08, 0.0, 0.137, 0.0, 0.038, 0.003, 0.044, 0.001, 0.012, 0.006, 0.0, 0.012, 0.01, 0.007, 0.021, 0.008, 0.02, 0.0, 0.0, 0.007, 0.0, 0.011, 0.0, 0.015, 0.013, 0.017, 0.014, 0.004, 0.02, 0.005, 0.001, 0.007, 0.027, 0.004, 0.002, 0.003, 0.01, 0.0, 0.022, 0.006, 0.0, 0.001, 0.027, 0.019, 0.057, 0.006, 0.059, 0.0, 0.142, 0.0, 0.118, 0.0, 0.091, 0.0, 0.038, 0.0, 0.0, 0.018, 0.036, 0.02, 0.027, 0.025, 0.08, 0.02, 0.072, 0.024, 0.04, 0.06, 0.049, 0.061, 0.036, 0.038, 0.018, 0.033, 0.009, 0.006, 0.002, 0.013, 0.0, 0.022, 0.0, 0.021, 0.006, 0.065, 0.0, 0.072, 0.007, 0.104, 0.029, 0.082, 0.002
83.22915363311768, 0, 0.046, 0.0, 0.0, 0.019, 0.004, 0.008, 0.018, 0.025, 0.033, 0.089, 0.05, 0.093, 0.101, 0.063, 0.092, 0.071, 0.068, 0.018, 0.066, 0.016, 0.012, 0.016, 0.044, 0.03, 0.053, 0.023, 0.056, 0.015, 0.041, 0.0, 0.005, 0.0, 0.0, 0.003, 0.0, 0.016, 0.0, 0.01, 0.0, 0.014, 0.005, 0.007, 0.007, 0.017, 0.003, 0.016, 0.03, 0.025, 0.038, 0.011, 0.054, 0.022, 0.053, 0.066, 0.026, 0.124, 0.011, 0.119, 0.0, 0.078, 0.003, 0.037, 0.008, 0.041, 0.012, 0.038, 0.006, 0.044, 0.0, 0.003, 0.003, 0.0, 0.018, 0.019, 0.028, 0.018, 0.016, 0.007, 0.0, 0.0, 0.0, 0.004, 0.0, 0.01, 0.007, 0.021, 0.0, 0.013, 0.0, 0.004, 0.004, 0.0, 0.0, 0.0, 0.0, 0.013, 0.0, 0.024, 0.004, 0.044
89.34888172149658, 1, 0.008, 0.033, 0.017, 0.04, 0.016, 0.027, 0.012, 0.021, 0.0, 0.03, 0.002, 0.006, 0.005, 0.001, 0.001, 0.0, 0.0, 0.0, 0.0, 0.006, 0.007, 0.028, 0.008, 0.032, 0.0, 0.033, 0.0, 0.046, 0.0, 0.051, 0.0, 0.038, 0.01, 0.012, 0.004, 0.007, 0.0, 0.0, 0.0, 0.009, 0.0, 0.03, 0.0, 0.008, 0.006, 0.035, 0.006, 0.03, 0.006, 0.029, 0.0, 0.027, 0.0, 0.0, 0.0, 0.015, 0.0, 0.032, 0.0, 0.037, 0.0, 0.098, 0.0, 0.056, 0.0, 0.057, 0.0, 0.095, 0.011, 0.067, 0.018, 0.063, 0.027, 0.05, 0.015, 0.035, 0.005, 0.013, 0.003, 0.028, 0.0, 0.002, 0.004, 0.0, 0.0, 0.0, 0.0, 0.003, 0.0, 0.006, 0.009, 0.035, 0.006, 0.044, 0.014, 0.018, 0.008, 0.006, 0.008, 0.0, 0.002, 0.004, 0.0, 0.0, 0.0, 0.0, 0.0, 0.013, 0.0, 0.012, 0.0, 0.019, 0.0, 0.022, 0.002, 0.0, 0.0, 0.0, 0.0, 0.0, 0.006, 0.0, 0.008, 0.01, 0.013, 0.015, 0.012, 0.035, 0.015, 0.051, 0.455, 0.191, 1.0, 0.666, 1.0, 1.0, 1.0, 1.0, 0.995, 1.0, 0.806, 0.852, 0.646, 0.561, 0.311, 0.243, 0.263, 0.167, 0.156, 0.111, 0.141, 0.103, 0.117, 0.08, 0.146, 0.124, 0.288, 0.179, 0.701, 0.508, 0.887, 0.723, 0.985, 0.631, 0.866, 0.536, 0.668, 0.303, 0.468, 0.153, 0.197, 0.114, 0.087, 0.048, 0.04, 0.048, 0.032, 0.052, 0.036, 0.054, 0.05, 0.069, 0.049, 0.074, 0.032, 0.035, 0.015, 0.024, 0.0, 0.0, 0.007, 0.012, 0.004, 0.03, 0.0, 0.03, 0.0, 0.044, 0.003, 0.032, 0.0, 0.019, 0.009, 0.022, 0.003, 0.016, 0.0, 0.011, 0.0, 0.013, 0.0, 0.026, 0.0, 0.024, 0.0, 0.02, 0.0, 0.0, 0.004, 0.0, 0.009, 0.017, 0.012, 0.006, 0.025, 0.059, 0.028, 0.073, 0.043, 0.115, 0.047, 0.137, 0.041, 0.116, 0.031, 0.099, 0.012, 0.05, 0.0, 0.02, 0.0, 0.0, 0.001, 0.018, 0.0, 0.008, 0.006, 0.015, 0.009, 0.004, 0.019, 0.0, 0.024, 0.0, 0.033, 0.047, 0.025, 0.033, 0.012, 0.037, 0.022, 0.062, 0.016, 0.014, 0.04, 0.019, 0.033, 0.011, 0.012, 0.01, 0.01, 0.015, 0.0, 0.029, 0.002, 0.042, 0.0, 0.016, 0.0, 0.022, 0.002, 0.015, 0.0, 0.009, 0.007, 0.035, 0.03, 0.047, 0.038, 0.095, 0.034, 0.079, 0.028, 0.122, 0.012, 0.1, 0.005, 0.041, 0.003, 0.055, 0.0, 0.0, 0.005, 0.003, 0.005, 0.0
91.37913179397583, 0, 0.008, 0.0, 0.023, 0.014, 0.019, 0.013, 0.007, 0.0, 0.012, 0.034, 0.004, 0.017, 0.0, 0.03, 0.005, 0.02, 0.005, 0.005, 0.0, 0.004, 0.003, 0.009, 0.0, 0.012, 0.0, 0.016, 0.026, 0.042, 0.021, 0.044, 0.027, 0.023, 0.022, 0.009, 0.014, 0.0, 0.006, 0.0, 0.0, 0.0, 0.0, 0.008, 0.0, 0.006, 0.0, 0.037, 0.0, 0.043, 0.001, 0.058, 0.001, 0.047, 0.0, 0.032, 0.0, 0.03, 0.0, 0.04, 0.0, 0.032, 0.008, 0.019, 0.004, 0.0, 0.008, 0.0, 0.012, 0.0, 0.005, 0.0, 0.006, 0.01, 0.008, 0.0, 0.006, 0.0, 0.007, 0.032, 0.0, 0.049, 0.001, 0.066, 0.005, 0.09, 0.0, 0.06, 0.0, 0.066, 0.0, 0.04, 0.0, 0.052, 0.006, 0.06, 0.006, 0.026, 0.002, 0.026, 0.0, 0.033, 0.0, 0.017
97.45781230926514, 2, 0.002, 0.035, 0.0, 0.023, 0.0, 0.0, 0.0, 0.0, 0.0, 0.0, 0.0, 0.032, 0.0, 0.052, 0.0, 0.059, 0.0, 0.056, 0.0, 0.03, 0.002, 0.036, 0.0, 0.016, 0.003, 0.025, 0.0, 0.011, 0.001, 0.006, 0.0, 0.006, 0.0, 0.001, 0.004, 0.0, 0.004, 0.003, 0.0, 0.0, 0.0, 0.004, 0.0, 0.009, 0.0, 0.0, 0.0, 0.015, 0.0, 0.029, 0.0, 0.028, 0.001, 0.024, 0.011, 0.035, 0.02, 0.042, 0.027, 0.068, 0.026, 0.05, 0.019, 0.069, 0.029, 0.059, 0.016, 0.029, 0.018, 0.057, 0.011, 0.01, 0.006, 0.019, 0.002, 0.006, 0.0, 0.0, 0.001, 0.031, 0.0, 0.001, 0.0, 0.015, 0.0, 0.011, 0.0, 0.008, 0.0, 0.011, 0.003, 0.016, 0.008, 0.0, 0.007, 0.006, 0.009, 0.023, 0.025, 0.054, 0.014, 0.075, 0.019, 0.059, 0.005, 0.07, 0.0, 0.05, 0.006, 0.051, 0.0, 0.029, 0.0, 0.013, 0.001, 0.0, 0.006, 0.03, 0.024, 0.08, 0.029, 0.082, 0.038, 0.106, 0.029, 0.069, 0.02, 0.05, 0.024, 0.061, 0.01, 0.06, 0.043, 0.12, 0.179, 0.255, 0.924, 0.784, 1.0, 0.944, 1.0, 1.0, 0.983, 1.0, 0.598, 0.968, 0.658, 1.0, 0.548, 0.877, 0.508, 0.703, 0.569, 0.84, 0.588, 0.989, 0.545, 0.971, 0.548, 1.0, 0.593, 0.868, 0.628, 0.769, 0.67, 0.963, 0.533, 0.748, 0.418, 0.603, 0.272, 0.435, 0.232, 0.17, 0.141, 0.115, 0.203, 0.032, 0.271, 0.031, 0.315, 0.0, 0.346, 0.0, 0.236, 0.0, 0.103, 0.011, 0.08, 0.107, 0.061, 0.109, 0.032, 0.087, 0.004, 0.065, 0.0, 0.0, 0.0, 0.0, 0.01, 0.0, 0.038, 0.0, 0.036, 0.0, 0.022, 0.0, 0.005, 0.004, 0.0, 0.025, 0.0, 0.021, 0.011, 0.037, 0.0, 0.025, 0.0, 0.015, 0.0, 0.0, 0.0, 0.0, 0.016, 0.016, 0.011, 0.018, 0.009, 0.018, 0.016, 0.026, 0.0, 0.004, 0.005, 0.004, 0.002, 0.0, 0.007, 0.01, 0.016, 0.019, 0.007, 0.017, 0.0, 0.011, 0.009, 0.0, 0.004, 0.0, 0.006, 0.028, 0.002, 0.029, 0.017, 0.032, 0.016, 0.038, 0.007, 0.012, 0.01, 0.007, 0.0, 0.004, 0.009, 0.0, 0.008, 0.004, 0.001, 0.005, 0.002, 0.003, 0.0, 0.005, 0.0, 0.016, 0.009, 0.035, 0.055, 0.089, 0.054, 0.075, 0.05, 0.07, 0.019, 0.048, 0.0, 0.003, 0.0, 0.003, 0.0, 0.0, 0.0, 0.006, 0.0, 0.022, 0.0, 0.026, 0.0, 0.03, 0.0, 0.027, 0.0, 0.032
99.50175523757935, 0, 0.0, 0.027, 0.0, 0.031, 0.0, 0.016, 0.0, 0.005, 0.0, 0.0, 0.002, 0.004, 0.0, 0.007, 0.0, 0.0, 0.0, 0.005, 0.0, 0.024, 0.0, 0.023, 0.0, 0.027, 0.0, 0.006, 0.002, 0.0, 0.011, 0.0, 0.012, 0.007, 0.021, 0.017, 0.013, 0.022, 0.001, 0.027, 0.005, 0.047, 0.0, 0.038, 0.0, 0.036, 0.0, 0.02, 0.0, 0.035, 0.0, 0.039, 0.0, 0.033, 0.0, 0.027, 0.0, 0.012, 0.0, 0.0, 0.0, 0.014, 0.0, 0.0, 0.003, 0.011, 0.0, 0.008, 0.003, 0.019, 0.0, 0.02, 0.0, 0.012, 0.0, 0.012, 0.0, 0.0, 0.0, 0.018, 0.009, 0.01, 0.005, 0.001, 0.005, 0.0, 0.005, 0.0, 0.0, 0.0, 0.0, 0.014, 0.0, 0.014, 0.0, 0.011, 0.0, 0.007, 0.0, 0.0, 0.007, 0.01, 0.011, 0.008
105.56743240356445, 3, 0.005, 0.008, 0.005, 0.018, 0.0, 0.023, 0.0, 0.022, 0.0, 0.001, 0.0, 0.0, 0.0, 0.001, 0.0, 0.027, 0.0, 0.049, 0.0, 0.044, 0.011, 0.047, 0.001, 0.02, 0.0, 0.016, 0.002, 0.015, 0.0, 0.003, 0.0, 0.001, 0.0, 0.0, 0.0, 0.004, 0.0, 0.0, 0.0, 0.0, 0.006, 0.0, 0.001, 0.0, 0.0, 0.0, 0.0, 0.022, 0.0, 0.008, 0.0, 0.014, 0.006, 0.02, 0.009, 0.014, 0.012, 0.014, 0.022, 0.089, 0.016, 0.11, 0.017, 0.1, 0.007, 0.071, 0.0, 0.029, 0.0, 0.011, 0.0, 0.004, 0.0, 0.0, 0.0, 0.0, 0.0, 0.002, 0.0, 0.005, 0.0, 0.022, 0.0, 0.015, 0.0, 0.013, 0.008, 0.008, 0.005, 0.0, 0.0, 0.0, 0.0, 0.0, 0.002, 0.006, 0.0, 0.012, 0.006, 0.013, 0.003, 0.02, 0.0, 0.006, 0.002, 0.015, 0.0, 0.007, 0.0, 0.0, 0.0, 0.007, 0.0, 0.008, 0.0, 0.014, 0.0, 0.022, 0.0, 0.009, 0.0, 0.01, 0.004, 0.007, 0.0, 0.004, 0.006, 0.023, 0.01, 0.016, 0.003, 0.003, 0.008, 0.015, 0.345, 0.227, 0.877, 0.574, 1.0, 0.71, 1.0, 0.774, 0.915, 0.586, 0.607, 0.317, 0.462, 0.319, 0.364, 0.276, 0.348, 0.279, 0.362, 0.193, 0.291, 0.235, 0.363, 0.337, 0.585, 0.44, 0.836, 1.0, 0.918, 0.984, 0.918, 1.0, 0.592, 0.665, 0.465, 0.529, 0.336, 0.452, 0.235, 0.171, 0.158, 0.121, 0.121, 0.081, 0.151, 0.288, 0.116, 0.325, 0.13, 0.342, 0.091, 0.308, 0.059, 0.122, 0.042, 0.087, 0.0, 0.07, 0.0, 0.057, 0.0, 0.069, 0.0, 0.029, 0.004, 0.059, 0.0, 0.039, 0.0, 0.015, 0.007, 0.008, 0.0, 0.0, 0.0, 0.0, 0.005, 0.0, 0.0, 0.0, 0.0, 0.002, 0.003, 0.0, 0.002, 0.032, 0.0, 0.011, 0.0, 0.019, 0.0, 0.0, 0.001, 0.0, 0.013, 0.008, 0.023, 0.0, 0.013, 0.008, 0.007, 0.01, 0.0, 0.003, 0.003, 0.001, 0.013, 0.018, 0.006, 0.021, 0.014, 0.06, 0.019, 0.073, 0.002, 0.062, 0.009, 0.056, 0.0, 0.04, 0.003, 0.006, 0.022, 0.006, 0.037, 0.027, 0.032, 0.007, 0.022, 0.0, 0.004, 0.0, 0.0, 0.0, 0.006, 0.001, 0.008, 0.028, 0.003, 0.015, 0.0, 0.01, 0.0, 0.0, 0.005, 0.0, 0.023, 0.026, 0.029, 0.01, 0.029, 0.032, 0.021, 0.045, 0.006, 0.049, 0.002, 0.035, 0.0, 0.025, 0.0, 0.0, 0.0, 0.019, 0.009, 0.024, 0.011, 0.025, 0.013, 0.017
107.56930255889893, 0, 0.002, 0.0, 0.0, 0.007, 0.002, 0.015, 0.001, 0.036, 0.011, 0.063, 0.009, 0.063, 0.014, 0.046, 0.006, 0.018, 0.009, 0.003, 0.01, 0.019, 0.0, 0.029, 0.003, 0.034, 0.0, 0.033, 0.0, 0.017, 0.0, 0.0, 0.0, 0.012, 0.0, 0.008, 0.001, 0.01, 0.008, 0.019, 0.004, 0.0, 0.008, 0.009, 0.011, 0.004, 0.014, 0.0, 0.03, 0.001, 0.027, 0.009, 0.009, 0.0, 0.0, 0.0, 0.0, 0.0, 0.0, 0.011, 0.008, 0.008, 0.01, 0.0, 0.008, 0.005, 0.007, 0.013, 0.003, 0.039, 0.0, 0.047, 0.0, 0.033, 0.003, 0.024, 0.009, 0.011, 0.013, 0.008, 0.015, 0.01, 0.008, 0.015, 0.0, 0.0, 0.0, 0.004, 0.0, 0.008, 0.001, 0.0, 0.006, 0.022, 0.008, 0.014, 0.0, 0.028, 0.0, 0.029, 0.0, 0.005
113.68116664886475, 4, 0.0, 0.0, 0.0, 0.005, 0.0, 0.0, 0.0, 0.0, 0.0, 0.017, 0.0, 0.023, 0.0, 0.026, 0.0, 0.02, 0.0, 0.0, 0.0, 0.001, 0.0, 0.021, 0.004, 0.041, 0.001, 0.046, 0.001, 0.079, 0.0, 0.056, 0.0, 0.094, 0.005, 0.092, 0.0, 0.038, 0.0, 0.031, 0.0, 0.0, 0.0, 0.004, 0.0, 0.012, 0.0, 0.019, 0.0, 0.02, 0.0, 0.015, 0.001, 0.003, 0.0, 0.0, 0.0, 0.034, 0.0, 0.021, 0.0, 0.03, 0.0, 0.041, 0.002, 0.016, 0.006, 0.019, 0.003, 0.001, 0.005, 0.003, 0.0, 0.021, 0.0, 0.017, 0.0, 0.008, 0.004, 0.013, 0.008, 0.026, 0.006, 0.046, 0.005, 0.03, 0.001, 0.019, 0.014, 0.0, 0.008, 0.002, 0.019, 0.001, 0.018, 0.0, 0.001, 0.017, 0.003, 0.027, 0.0, 0.025, 0.0, 0.014, 0.003, 0.0, 0.003, 0.0, 0.0, 0.001, 0.008, 0.03, 0.0, 0.03, 0.001, 0.018, 0.001, 0.045, 0.003, 0.001, 0.0, 0.0, 0.001, 0.014, 0.005, 0.0, 0.018, 0.02, 0.022, 0.045, 0.027, 0.014, 0.024, 0.007, 0.068, 0.12, 0.585, 0.484, 1.0, 1.0, 1.0, 1.0, 0.957, 1.0, 0.831, 0.915, 1.0, 0.933, 0.865, 1.0, 0.753, 0.733, 0.789, 0.819, 0.576, 0.659, 0.61, 0.526, 0.625, 0.559, 0.556, 0.714, 0.701, 0.716, 0.639, 0.536, 0.526, 0.341, 0.413, 0.162, 0.251, 0.099, 0.201, 0.107, 0.213, 0.068, 0.203, 0.109, 0.146, 0.099, 0.137, 0.156, 0.114, 0.119, 0.083, 0.054, 0.04, 0.0, 0.0, 0.0, 0.0, 0.001, 0.002, 0.0, 0.0, 0.0, 0.0, 0.006, 0.002, 0.0, 0.013, 0.008, 0.021, 0.02, 0.034, 0.016, 0.045, 0.047, 0.034, 0.057, 0.016, 0.035, 0.016, 0.05, 0.006, 0.0, 0.005, 0.005, 0.008, 0.009, 0.0, 0.0, 0.0, 0.003, 0.0, 0.0, 0.0, 0.006, 0.001, 0.021, 0.0, 0.018, 0.008, 0.01, 0.001, 0.017, 0.0, 0.001, 0.019, 0.065, 0.015, 0.036, 0.006, 0.025, 0.003, 0.032, 0.0, 0.0, 0.0, 0.0, 0.014, 0.0, 0.019, 0.022, 0.008, 0.005, 0.0, 0.008, 0.001, 0.021, 0.0, 0.009, 0.0, 0.0, 0.0, 0.002, 0.0, 0.001, 0.0, 0.0, 0.001, 0.0, 0.0, 0.011, 0.0, 0.02, 0.0, 0.033, 0.0, 0.033, 0.0, 0.028, 0.0, 0.018, 0.0, 0.026, 0.0, 0.027, 0.0, 0.035, 0.0, 0.057, 0.0, 0.057, 0.002, 0.055, 0.015, 0.062, 0.006, 0.048, 0.003, 0.035, 0.0, 0.041, 0.009, 0.024, 0.012, 0.016
115.68222379684448, 0, 0.006, 0.019, 0.012, 0.0, 0.001, 0.0, 0.0, 0.0, 0.0, 0.005, 0.0, 0.009, 0.0, 0.0, 0.0, 0.002, 0.001, 0.0, 0.0, 0.016, 0.0, 0.03, 0.0, 0.035, 0.0, 0.051, 0.005, 0.061, 0.003, 0.071, 0.009, 0.068, 0.008, 0.062, 0.016, 0.027, 0.008, 0.01, 0.0, 0.017, 0.0, 0.0, 0.0, 0.012, 0.0, 0.0, 0.0, 0.001, 0.0, 0.008, 0.0, 0.0, 0.0, 0.01, 0.0, 0.027, 0.0, 0.035, 0.0, 0.035, 0.0, 0.022, 0.0, 0.0, 0.0, 0.002, 0.001, 0.01, 0.001, 0.015, 0.008, 0.011, 0.014, 0.005, 0.015, 0.006, 0.02, 0.011, 0.003, 0.017, 0.013, 0.034, 0.002, 0.033, 0.0, 0.037, 0.0, 0.025, 0.0, 0.007, 0.0, 0.011, 0.0, 0.028, 0.0, 0.019, 0.0, 0.031, 0.0, 0.005
121.72684907913208, 5, 0.006, 0.005, 0.006, 0.012, 0.016, 0.0, 0.016, 0.0, 0.009, 0.02, 0.0, 0.019, 0.0, 0.022, 0.0, 0.045, 0.0, 0.035, 0.001, 0.033, 0.003, 0.039, 0.012, 0.035, 0.01, 0.026, 0.003, 0.041, 0.0, 0.028, 0.0, 0.016, 0.0, 0.01, 0.0, 0.0, 0.01, 0.003, 0.007, 0.0, 0.013, 0.005, 0.003, 0.025, 0.002, 0.011, 0.0, 0.018, 0.0, 0.0, 0.015, 0.005, 0.013, 0.003, 0.011, 0.0, 0.0, 0.012, 0.0, 0.01, 0.002, 0.003, 0.008, 0.0, 0.025, 0.003, 0.02, 0.004, 0.001, 0.013, 0.0, 0.011, 0.0, 0.001, 0.0, 0.006, 0.0, 0.013, 0.0, 0.005, 0.0, 0.0, 0.0, 0.0, 0.0, 0.0, 0.0, 0.011, 0.0, 0.023, 0.0, 0.018, 0.0, 0.036, 0.0, 0.045, 0.0, 0.039, 0.002, 0.059, 0.013, 0.02, 0.015, 0.001, 0.017, 0.0, 0.006, 0.014, 0.0, 0.035, 0.0, 0.05, 0.0, 0.052, 0.0, 0.034, 0.003, 0.043, 0.003, 0.042, 0.0, 0.036, 0.0, 0.011, 0.0, 0.016, 0.0, 0.019, 0.03, 0.038, 0.267, 0.153, 0.92, 0.262, 1.0, 0.867, 1.0, 1.0, 1.0, 1.0, 0.971, 0.989, 0.72, 0.679, 0.738, 0.662, 0.677, 0.492, 0.639, 0.393, 0.769, 0.366, 0.647, 0.313, 0.712, 0.34, 0.676, 0.371, 0.574, 0.393, 0.495, 0.347, 0.453, 0.527, 0.367, 1.0, 0.288, 1.0, 0.327, 1.0, 0.385, 0.776, 0.404, 0.449, 0.259, 0.184, 0.204, 0.121, 0.088, 0.138, 0.072, 0.153, 0.08, 0.153, 0.065, 0.114, 0.043, 0.09, 0.003, 0.047, 0.0, 0.034, 0.0, 0.0, 0.002, 0.007, 0.001, 0.002, 0.0, 0.002, 0.0, 0.0, 0.004, 0.015, 0.005, 0.0, 0.004, 0.018, 0.002, 0.016, 0.002, 0.011, 0.003, 0.02, 0.006, 0.019, 0.008, 0.011, 0.005, 0.0, 0.0, 0.004, 0.0, 0.028, 0.003, 0.059, 0.006, 0.05, 0.012, 0.052, 0.017, 0.02, 0.01, 0.0, 0.004, 0.028, 0.0, 0.025, 0.0, 0.03, 0.003, 0.028, 0.0, 0.025, 0.0, 0.0, 0.013, 0.004, 0.013, 0.0, 0.016, 0.004, 0.016, 0.015, 0.008, 0.001, 0.014, 0.0, 0.026, 0.011, 0.025, 0.0, 0.006, 0.0, 0.0, 0.0, 0.003, 0.0, 0.009, 0.0, 0.011, 0.012, 0.005, 0.0, 0.0, 0.0, 0.0, 0.0, 0.0, 0.011, 0.0, 0.025, 0.007, 0.031, 0.02, 0.03, 0.009, 0.017, 0.01, 0.031, 0.008, 0.046, 0.008, 0.04, 0.006, 0.019, 0.0, 0.0, 0.0, 0.002, 0.0, 0.002
123.76682329177856, 0, 0.0, 0.002, 0.0, 0.009, 0.0, 0.0, 0.014, 0.001, 0.012, 0.003, 0.012, 0.0, 0.011, 0.011, 0.001, 0.027, 0.008, 0.033, 0.005, 0.064, 0.0, 0.046, 0.009, 0.051, 0.0, 0.011, 0.009, 0.024, 0.017, 0.024, 0.005, 0.009, 0.001, 0.035, 0.0, 0.018, 0.005, 0.0, 0.005, 0.0, 0.015, 0.0, 0.01, 0.0, 0.0, 0.008, 0.0, 0.013, 0.0, 0.011, 0.007, 0.021, 0.006, 0.02, 0.016, 0.004, 0.017, 0.035, 0.022, 0.054, 0.022, 0.075, 0.019, 0.1, 0.012, 0.043, 0.0, 0.026, 0.0, 0.0, 0.0, 0.0, 0.0, 0.002, 0.0, 0.013, 0.0, 0.024, 0.0, 0.028, 0.0, 0.035, 0.0, 0.047, 0.0, 0.049, 0.014, 0.056, 0.019, 0.045, 0.036, 0.022, 0.025, 0.012, 0.03, 0.019, 0.014, 0.012, 0.015, 0.021, 0.015, 0.04
129.808039188385, 1, 0.0, 0.039, 0.004, 0.051, 0.0, 0.032, 0.007, 0.028, 0.0, 0.014, 0.004, 0.001, 0.002, 0.01, 0.0, 0.007, 0.0, 0.005, 0.006, 0.008, 0.01, 0.033, 0.04, 0.05, 0.04, 0.048, 0.037, 0.033, 0.012, 0.0, 0.0, 0.0, 0.002, 0.014, 0.0, 0.022, 0.006, 0.071, 0.002, 0.074, 0.0, 0.046, 0.001, 0.019, 0.011, 0.0, 0.014, 0.0, 0.009, 0.008, 0.002, 0.003, 0.0, 0.03, 0.017, 0.022, 0.032, 0.028, 0.03, 0.013, 0.032, 0.014, 0.011, 0.0, 0.002, 0.0, 0.0, 0.0, 0.012, 0.0, 0.008, 0.001, 0.0, 0.024, 0.0, 0.061, 0.0, 0.077, 0.0, 0.123, 0.0, 0.099, 0.0, 0.087, 0.0, 0.073, 0.0, 0.042, 0.005, 0.06, 0.026, 0.051, 0.032, 0.068, 0.037, 0.043, 0.03, 0.036, 0.017, 0.017, 0.01, 0.015, 0.012, 0.007, 0.004, 0.0, 0.004, 0.011, 0.0, 0.032, 0.0, 0.032, 0.0, 0.024, 0.004, 0.028, 0.005, 0.023, 0.006, 0.032, 0.0, 0.03, 0.0, 0.022, 0.005, 0.004, 0.02, 0.016, 0.028, 0.019, 0.015, 0.043, 0.262, 0.241, 1.0, 1.0, 1.0, 1.0, 1.0, 1.0, 0.988, 0.965, 0.854, 0.557, 0.629, 0.351, 0.326, 0.212, 0.178, 0.094, 0.143, 0.076, 0.143, 0.054, 0.149, 0.075, 0.623, 0.455, 0.919, 0.681, 1.0, 0.869, 1.0, 0.738, 0.687, 0.36, 0.519, 0.22, 0.333, 0.109, 0.119, 0.091, 0.098, 0.082, 0.092, 0.053, 0.057, 0.039, 0.019, 0.019, 0.015, 0.009, 0.019, 0.004, 0.04, 0.0, 0.041, 0.0, 0.024, 0.004, 0.011, 0.003, 0.0, 0.009, 0.002, 0.008, 0.008, 0.001, 0.007, 0.0, 0.013, 0.002, 0.01, 0.0, 0.016, 0.032, 0.021, 0.031, 0.027, 0.018, 0.022, 0.027, 0.02, 0.02, 0.017, 0.045, 0.014, 0.053, 0.011, 0.029, 0.0, 0.008, 0.0, 0.0, 0.0, 0.006, 0.007, 0.03, 0.009, 0.023, 0.004, 0.031, 0.0, 0.046, 0.004, 0.025, 0.008, 0.007, 0.015, 0.0, 0.008, 0.006, 0.0, 0.0, 0.0, 0.012, 0.004, 0.008, 0.006, 0.011, 0.01, 0.025, 0.005, 0.005, 0.0, 0.018, 0.0, 0.001, 0.0, 0.006, 0.001, 0.008, 0.001, 0.0, 0.002, 0.005, 0.0, 0.0, 0.0, 0.0, 0.001, 0.021, 0.002, 0.0, 0.001, 0.0, 0.01, 0.002, 0.012, 0.009, 0.027, 0.019, 0.026, 0.016, 0.031, 0.045, 0.021, 0.012, 0.001, 0.012, 0.0, 0.0, 0.0, 0.014, 0.0, 0.022, 0.001, 0.021, 0.008, 0.018, 0.005, 0.016
131.84348130226135, 0, 0.022, 0.014, 0.022, 0.01, 0.023, 0.002, 0.023, 0.0, 0.0, 0.003, 0.0, 0.022, 0.002, 0.015, 0.001, 0.01, 0.007, 0.0, 0.002, 0.0, 0.0, 0.0, 0.0, 0.0, 0.0, 0.026, 0.013, 0.051, 0.019, 0.074, 0.023, 0.084, 0.02, 0.053, 0.014, 0.023, 0.009, 0.032, 0.007, 0.034, 0.002, 0.022, 0.004, 0.006, 0.0, 0.0, 0.003, 0.001, 0.013, 0.015, 0.006, 0.03, 0.021, 0.063, 0.027, 0.077, 0.005, 0.052, 0.015, 0.038, 0.0, 0.0, 0.007, 0.021, 0.032, 0.068, 0.025, 0.057, 0.033, 0.059, 0.016, 0.0, 0.015, 0.024, 0.023, 0.032, 0.02, 0.036, 0.001, 0.024, 0.001, 0.022, 0.0, 0.017, 0.0, 0.007, 0.001, 0.016, 0.004, 0.004, 0.014, 0.014, 0.006, 0.027, 0.011, 0.033, 0.001, 0.03, 0.0, 0.008, 0.0, 0.001
137.92418575286865, 2, 0.0, 0.0, 0.001, 0.002, 0.0, 0.018, 0.004, 0.032, 0.016, 0.052, 0.0, 0.048, 0.008, 0.064, 0.005, 0.052, 0.008, 0.025, 0.003, 0.0, 0.0, 0.022, 0.004, 0.0, 0.0, 0.003, 0.0, 0.008, 0.0, 0.01, 0.0, 0.033, 0.001, 0.001, 0.015, 0.011, 0.014, 0.016, 0.005, 0.009, 0.0, 0.016, 0.0, 0.011, 0.0, 0.0, 0.0, 0.01, 0.0, 0.023, 0.0, 0.0, 0.0, 0.006, 0.0, 0.0, 0.0, 0.015, 0.003, 0.025, 0.0, 0.015, 0.004, 0.026, 0.009, 0.003, 0.006, 0.0, 0.001, 0.005, 0.016, 0.032, 0.001, 0.024, 0.007, 0.0, 0.003, 0.003, 0.0, 0.018, 0.0, 0.037, 0.006, 0.02, 0.005, 0.023, 0.003, 0.0, 0.0, 0.016, 0.0, 0.015, 0.0, 0.016, 0.0, 0.013, 0.0, 0.0, 0.003, 0.0, 0.007, 0.0, 0.011, 0.0, 0.018, 0.0, 0.022, 0.003, 0.021, 0.027, 0.0, 0.034, 0.0, 0.039, 0.003, 0.043, 0.01, 0.049, 0.03, 0.04, 0.023, 0.033, 0.013, 0.023, 0.01, 0.029, 0.0, 0.015, 0.022, 0.049, 0.327, 0.463, 0.903, 0.826, 1.0, 1.0, 1.0, 1.0, 0.964, 0.985, 0.787, 0.906, 0.64, 0.889, 0.426, 0.61, 0.317, 0.506, 0.283, 0.547, 0.353, 0.601, 0.382, 0.492, 0.441, 0.376, 0.429, 0.366, 0.392, 0.398, 0.341, 0.447, 0.334, 0.434, 0.425, 0.303, 0.469, 0.242, 0.684, 0.212, 0.609, 0.197, 0.423, 0.217, 0.182, 0.078, 0.034, 0.034, 0.064, 0.012, 0.094, 0.0, 0.096, 0.033, 0.06, 0.056, 0.0, 0.079, 0.0, 0.086, 0.0, 0.067, 0.0, 0.036, 0.022, 0.027, 0.05, 0.02, 0.057, 0.008, 0.047, 0.0, 0.026, 0.0, 0.009, 0.0, 0.0, 0.031, 0.007, 0.019, 0.015, 0.021, 0.024, 0.033, 0.041, 0.007, 0.046, 0.001, 0.026, 0.003, 0.015, 0.0, 0.0, 0.013, 0.0, 0.048, 0.0, 0.061, 0.0, 0.044, 0.002, 0.032, 0.003, 0.0, 0.005, 0.02, 0.0, 0.026, 0.0, 0.036, 0.0, 0.037, 0.0, 0.016, 0.0, 0.0, 0.0, 0.0, 0.0, 0.005, 0.0, 0.003, 0.003, 0.018, 0.004, 0.015, 0.006, 0.013, 0.012, 0.0, 0.013, 0.0, 0.008, 0.008, 0.0, 0.0, 0.002, 0.01, 0.007, 0.063, 0.015, 0.052, 0.018, 0.071, 0.011, 0.063, 0.005, 0.0, 0.011, 0.01, 0.0, 0.003, 0.006, 0.02, 0.009, 0.027, 0.013, 0.014, 0.012, 0.051, 0.017, 0.056, 0.008, 0.051, 0.0, 0.051, 0.0, 0.019, 0.0, 0.01, 0.013, 0.01, 0.013, 0.02
139.96145486831665, 0, 0.014, 0.012, 0.012, 0.005, 0.0, 0.0, 0.001, 0.0, 0.0, 0.007, 0.004, 0.026, 0.0, 0.019, 0.001, 0.025, 0.004, 0.029, 0.006, 0.049, 0.023, 0.036, 0.006, 0.023, 0.019, 0.0, 0.0, 0.0, 0.0, 0.0, 0.0, 0.029, 0.0, 0.036, 0.0, 0.033, 0.0, 0.025, 0.0, 0.01, 0.0, 0.001, 0.0, 0.032, 0.0, 0.071, 0.0, 0.056, 0.0, 0.041, 0.0, 0.018, 0.001, 0.008, 0.023, 0.039, 0.02, 0.041, 0.014, 0.04, 0.003, 0.036, 0.0, 0.027, 0.0, 0.033, 0.0, 0.022, 0.0, 0.022, 0.0, 0.017, 0.0, 0.011, 0.0, 0.007, 0.0, 0.006, 0.0, 0.012, 0.0, 0.008, 0.0, 0.0, 0.008, 0.025, 0.006, 0.008, 0.009, 0.006, 0.017, 0.025, 0.003, 0.034, 0.004, 0.054, 0.0, 0.065, 0.0, 0.036, 0.0, 0.008
146.04227304458618, 3, 0.0, 0.0, 0.0, 0.001, 0.0, 0.01, 0.0, 0.0, 0.009, 0.031, 0.006, 0.037, 0.011, 0.018, 0.001, 0.0, 0.006, 0.0, 0.005, 0.0, 0.009, 0.024, 0.006, 0.026, 0.003, 0.035, 0.0, 0.06, 0.0, 0.058, 0.002, 0.036, 0.001, 0.029, 0.0, 0.003, 0.0, 0.0, 0.0, 0.012, 0.0, 0.007, 0.0, 0.029, 0.0, 0.02, 0.0, 0.0, 0.002, 0.001, 0.005, 0.012, 0.0, 0.023, 0.005, 0.045, 0.009, 0.039, 0.025, 0.04, 0.026, 0.032, 0.038, 0.006, 0.037, 0.014, 0.024, 0.0, 0.015, 0.035, 0.0, 0.028, 0.003, 0.04, 0.003, 0.033, 0.008, 0.0, 0.013, 0.005, 0.012, 0.0, 0.004, 0.0, 0.0, 0.023, 0.0, 0.019, 0.004, 0.024, 0.009, 0.039, 0.017, 0.024, 0.032, 0.01, 0.031, 0.022, 0.026, 0.007, 0.013, 0.017, 0.005, 0.001, 0.0, 0.0, 0.0, 0.017, 0.0, 0.033, 0.0, 0.052, 0.0, 0.065, 0.0, 0.044, 0.001, 0.022, 0.0, 0.028, 0.0, 0.012, 0.0, 0.004, 0.0, 0.025, 0.009, 0.026, 0.018, 0.02, 0.018, 0.013, 0.022, 0.0, 0.021, 0.046, 0.337, 0.144, 0.613, 0.213, 0.81, 0.296, 0.93, 0.368, 0.835, 0.322, 0.806, 0.326, 0.666, 0.322, 0.499, 0.273, 0.46, 0.233, 0.302, 0.285, 0.333, 0.207, 0.378, 0.226, 0.418, 0.291, 0.351, 0.236, 0.548, 0.225, 0.579, 0.373, 0.73, 0.856, 0.818, 1.0, 0.715, 0.937, 0.688, 0.69, 0.725, 0.289, 0.636, 0.086, 0.483, 0.052, 0.231, 0.023, 0.059, 0.0, 0.018, 0.047, 0.017, 0.076, 0.007, 0.073, 0.0, 0.026, 0.005, 0.015, 0.009, 0.041, 0.0, 0.003, 0.0, 0.0, 0.0, 0.0, 0.0, 0.0, 0.014, 0.008, 0.024, 0.003, 0.019, 0.0, 0.013, 0.0, 0.005, 0.0, 0.005, 0.0, 0.002, 0.0, 0.0, 0.015, 0.0, 0.007, 0.0, 0.0, 0.0, 0.0, 0.0, 0.0, 0.001, 0.002, 0.007, 0.012, 0.004, 0.0, 0.002, 0.012, 0.0, 0.002, 0.002, 0.006, 0.003, 0.008, 0.012, 0.0, 0.012, 0.0, 0.0, 0.011, 0.0, 0.011, 0.0, 0.025, 0.0, 0.035, 0.003, 0.016, 0.005, 0.002, 0.003, 0.0, 0.0, 0.03, 0.005, 0.058, 0.0, 0.056, 0.009, 0.029, 0.006, 0.0, 0.002, 0.0, 0.0, 0.012, 0.001, 0.002, 0.001, 0.005, 0.01, 0.001, 0.02, 0.01, 0.015, 0.017, 0.016, 0.02, 0.008, 0.016, 0.0, 0.024, 0.0, 0.023, 0.0, 0.003, 0.0, 0.018, 0.0, 0.0, 0.003, 0.006, 0.006, 0.011
148.0692925453186, 0, 0.004, 0.015, 0.0, 0.01, 0.0, 0.02, 0.0, 0.0, 0.0, 0.006, 0.012, 0.0, 0.012, 0.007, 0.018, 0.005, 0.007, 0.009, 0.006, 0.0, 0.013, 0.023, 0.003, 0.023, 0.017, 0.027, 0.023, 0.014, 0.013, 0.002, 0.0, 0.004, 0.0, 0.022, 0.005, 0.034, 0.003, 0.039, 0.01, 0.035, 0.002, 0.011, 0.008, 0.013, 0.053, 0.006, 0.076, 0.003, 0.126, 0.02, 0.145, 0.007, 0.18, 0.002, 0.218, 0.003, 0.274, 0.0, 0.289, 0.0, 0.221, 0.0, 0.08, 0.033, 0.013, 0.035, 0.0, 0.027, 0.042, 0.002, 0.088, 0.0, 0.161, 0.008, 0.175, 0.005, 0.134, 0.017, 0.122, 0.03, 0.029, 0.039, 0.031, 0.045, 0.017, 0.069, 0.004, 0.072, 0.0, 0.086, 0.0, 0.099, 0.0, 0.081, 0.0, 0.071, 0.004, 0.043, 0.001, 0.045, 0.0, 0.026
154.11402249336243, 4, 0.0, 0.026, 0.0, 0.035, 0.0, 0.021, 0.0, 0.011, 0.0, 0.02, 0.0, 0.0, 0.0, 0.003, 0.0, 0.001, 0.0, 0.011, 0.0, 0.018, 0.0, 0.017, 0.0, 0.017, 0.0, 0.019, 0.0, 0.029, 0.0, 0.02, 0.0, 0.019, 0.0, 0.009, 0.0, 0.016, 0.0, 0.0, 0.0, 0.006, 0.0, 0.006, 0.006, 0.001, 0.0, 0.0, 0.0, 0.0, 0.0, 0.003, 0.002, 0.0, 0.003, 0.009, 0.001, 0.013, 0.007, 0.012, 0.053, 0.0, 0.078, 0.017, 0.166, 0.004, 0.186, 0.0, 0.125, 0.0, 0.114, 0.021, 0.024, 0.025, 0.0, 0.036, 0.0, 0.052, 0.0, 0.032, 0.0, 0.037, 0.0, 0.017, 0.006, 0.016, 0.006, 0.0, 0.006, 0.012, 0.008, 0.022, 0.009, 0.018, 0.002, 0.034, 0.0, 0.022, 0.0, 0.017, 0.001, 0.01, 0.0, 0.006, 0.0, 0.0, 0.0, 0.012, 0.0, 0.011, 0.0, 0.0, 0.0, 0.009, 0.0, 0.002, 0.0, 0.0, 0.0, 0.008, 0.0, 0.0, 0.0, 0.0, 0.0, 0.0, 0.014, 0.009, 0.017, 0.021, 0.033, 0.028, 0.032, 0.03, 0.024, 0.024, 0.029, 0.008, 0.011, 0.022, 0.032, 0.041, 0.588, 0.598, 1.0, 1.0, 1.0, 1.0, 0.929, 1.0, 0.79, 1.0, 0.529, 1.0, 0.374, 0.907, 0.457, 0.855, 0.51, 0.773, 0.511, 0.609, 0.46, 0.567, 0.422, 0.501, 0.386, 0.526, 0.363, 0.473, 0.464, 0.491, 0.4, 0.412, 0.368, 0.172, 0.301, 0.142, 0.219, 0.127, 0.204, 0.09, 0.107, 0.065, 0.09, 0.069, 0.024, 0.046, 0.05, 0.057, 0.048, 0.068, 0.031, 0.043, 0.002, 0.016, 0.0, 0.016, 0.0, 0.0, 0.017, 0.005, 0.032, 0.041, 0.043, 0.055, 0.037, 0.051, 0.006, 0.05, 0.0, 0.03, 0.007, 0.016, 0.0, 0.016, 0.0, 0.008, 0.0, 0.0, 0.002, 0.011, 0.0, 0.017, 0.01, 0.011, 0.005, 0.023, 0.0, 0.021, 0.0, 0.017, 0.0, 0.024, 0.0, 0.008, 0.0, 0.0, 0.0, 0.022, 0.0, 0.004, 0.0, 0.024, 0.0, 0.022, 0.0, 0.01, 0.0, 0.005, 0.008, 0.058, 0.025, 0.067, 0.029, 0.075, 0.025, 0.102, 0.006, 0.029, 0.0, 0.016, 0.0, 0.0, 0.0, 0.002, 0.0, 0.008, 0.0, 0.006, 0.0, 0.0, 0.0, 0.0, 0.0, 0.0, 0.0, 0.016, 0.0, 0.012, 0.0, 0.022, 0.0, 0.012, 0.0, 0.012, 0.0, 0.038, 0.0, 0.031, 0.0, 0.03, 0.0, 0.001, 0.0, 0.0, 0.0, 0.0, 0.008, 0.002, 0.015, 0.001, 0.001, 0.006
156.15449357032776, 0, 0.0, 0.007, 0.0, 0.0, 0.004, 0.017, 0.0, 0.037, 0.0, 0.035, 0.0, 0.042, 0.0, 0.034, 0.0, 0.027, 0.0, 0.051, 0.0, 0.041, 0.0, 0.03, 0.001, 0.029, 0.0, 0.008, 0.0, 0.0, 0.0, 0.0, 0.0, 0.0, 0.0, 0.002, 0.0, 0.027, 0.0, 0.041, 0.0, 0.063, 0.0, 0.04, 0.0, 0.017, 0.0, 0.01, 0.0, 0.0, 0.0, 0.033, 0.0, 0.036, 0.0, 0.04, 0.0, 0.076, 0.0, 0.054, 0.008, 0.039, 0.152, 0.012, 0.199, 0.0, 0.294, 0.0, 0.223, 0.002, 0.154, 0.0, 0.084, 0.006, 0.02, 0.009, 0.005, 0.003, 0.034, 0.0, 0.06, 0.0, 0.062, 0.005, 0.04, 0.002, 0.0, 0.0, 0.002, 0.001, 0.002, 0.0, 0.0, 0.0, 0.01, 0.012, 0.0, 0.012, 0.012, 0.015, 0.0, 0.014, 0.009, 0.023
162.26709699630737, 5, 0.016, 0.02, 0.006, 0.024, 0.007, 0.024, 0.003, 0.026, 0.0, 0.041, 0.0, 0.046, 0.0, 0.036, 0.0, 0.027, 0.0, 0.014, 0.0, 0.002, 0.0, 0.0, 0.0, 0.0, 0.0, 0.003, 0.0, 0.003, 0.0, 0.005, 0.0, 0.011, 0.0, 0.019, 0.0, 0.013, 0.0, 0.004, 0.0, 0.016, 0.0, 0.003, 0.0, 0.001, 0.0, 0.0, 0.0, 0.004, 0.0, 0.0, 0.0, 0.0, 0.0, 0.002, 0.001, 0.0, 0.002, 0.003, 0.001, 0.0, 0.0, 0.0, 0.002, 0.012, 0.0, 0.017, 0.002, 0.037, 0.001, 0.036, 0.0, 0.028, 0.0, 0.016, 0.0, 0.007, 0.0, 0.002, 0.011, 0.0, 0.015, 0.011, 0.011, 0.015, 0.01, 0.017, 0.018, 0.026, 0.002, 0.03, 0.0, 0.036, 0.0, 0.033, 0.0, 0.038, 0.004, 0.01, 0.003, 0.002, 0.0, 0.015, 0.006, 0.006, 0.0, 0.018, 0.0, 0.005, 0.0, 0.0, 0.0, 0.006, 0.0, 0.012, 0.0, 0.035, 0.0, 0.027, 0.018, 0.021, 0.017, 0.02, 0.0, 0.005, 0.0, 0.013, 0.0, 0.007, 0.126, 0.118, 0.885, 0.185, 1.0, 0.44, 1.0, 0.632, 1.0, 0.731, 0.816, 0.724, 0.679, 0.611, 0.508, 0.61, 0.637, 0.525, 0.719, 0.688, 0.697, 0.712, 0.777, 0.722, 0.631, 0.632, 0.682, 0.458, 0.798, 0.482, 0.78, 0.418, 0.772, 0.511, 0.692, 0.574, 0.555, 1.0, 0.461, 1.0, 0.447, 1.0, 0.441, 0.91, 0.39, 0.324, 0.355, 0.192, 0.244, 0.105, 0.16, 0.109, 0.064, 0.096, 0.031, 0.127, 0.019, 0.122, 0.02, 0.093, 0.013, 0.078, 0.009, 0.032, 0.0, 0.002, 0.0, 0.001, 0.002, 0.017, 0.002, 0.014, 0.0, 0.011, 0.012, 0.017, 0.004, 0.01, 0.0, 0.007, 0.0, 0.0, 0.007, 0.013, 0.009, 0.0, 0.009, 0.03, 0.007, 0.026, 0.01, 0.007, 0.007, 0.028, 0.005, 0.0, 0.014, 0.0, 0.0, 0.0, 0.012, 0.002, 0.019, 0.012, 0.008, 0.014, 0.005, 0.013, 0.0, 0.013, 0.0, 0.007, 0.005, 0.009, 0.002, 0.057, 0.0, 0.05, 0.011, 0.068, 0.0, 0.061, 0.0, 0.006, 0.0, 0.002, 0.0, 0.0, 0.0, 0.009, 0.0, 0.0, 0.0, 0.003, 0.004, 0.0, 0.023, 0.012, 0.029, 0.024, 0.016, 0.032, 0.006, 0.028, 0.0, 0.0, 0.0, 0.0, 0.006, 0.022, 0.003, 0.0, 0.0, 0.006, 0.0, 0.013, 0.0, 0.0, 0.001, 0.004, 0.008, 0.01, 0.001, 0.0, 0.0, 0.003, 0.0, 0.014, 0.0, 0.016, 0.0, 0.014, 0.0, 0.014, 0.0, 0.0, 0.0, 0.0
164.307222366333, 0, 0.0, 0.016, 0.0, 0.032, 0.0, 0.024, 0.0, 0.0, 0.0, 0.0, 0.0, 0.0, 0.0, 0.003, 0.0, 0.034, 0.0, 0.06, 0.0, 0.057, 0.0, 0.035, 0.0, 0.027, 0.0, 0.025, 0.0, 0.03, 0.0, 0.037, 0.005, 0.036, 0.008, 0.029, 0.0, 0.023, 0.0, 0.0, 0.0, 0.015, 0.0, 0.031, 0.0, 0.025, 0.0, 0.042, 0.0, 0.014, 0.0, 0.013, 0.005, 0.011, 0.001, 0.001, 0.0, 0.002, 0.0, 0.013, 0.0, 0.004, 0.0, 0.004, 0.002, 0.035, 0.014, 0.042, 0.013, 0.038, 0.01, 0.02, 0.0, 0.006, 0.0, 0.01, 0.01, 0.0, 0.015, 0.0, 0.008, 0.0, 0.002, 0.0, 0.0, 0.01, 0.0, 0.023, 0.002, 0.043, 0.006, 0.028, 0.0, 0.033, 0.0, 0.027, 0.0, 0.037, 0.0, 0.027, 0.0, 0.007, 0.002, 0.0
170.3830771446228, 1, 0.001, 0.0, 0.0, 0.009, 0.0, 0.007, 0.0, 0.009, 0.0, 0.002, 0.004, 0.011, 0.005, 0.024, 0.004, 0.034, 0.015, 0.058, 0.013, 0.052, 0.013, 0.021, 0.013, 0.033, 0.0, 0.0, 0.001, 0.023, 0.0, 0.019, 0.0, 0.003, 0.0, 0.01, 0.0, 0.0, 0.0, 0.012, 0.002, 0.037, 0.01, 0.023, 0.001, 0.019, 0.021, 0.03, 0.003, 0.04, 0.0, 0.031, 0.0, 0.031, 0.0, 0.009, 0.0, 0.007, 0.0, 0.046, 0.0, 0.038, 0.0, 0.043, 0.002, 0.039, 0.0, 0.026, 0.004, 0.026, 0.003, 0.018, 0.0, 0.039, 0.004, 0.031, 0.013, 0.061, 0.009, 0.069, 0.007, 0.043, 0.001, 0.035, 0.0, 0.001, 0.0, 0.007, 0.0, 0.012, 0.0, 0.007, 0.003, 0.003, 0.0, 0.011, 0.0, 0.0, 0.0, 0.0, 0.025, 0.068, 0.032, 0.046, 0.024, 0.055, 0.04, 0.064, 0.031, 0.0, 0.034, 0.022, 0.05, 0.02, 0.025, 0.035, 0.013, 0.02, 0.0, 0.01, 0.0, 0.025, 0.0, 0.034, 0.0, 0.049, 0.008, 0.064, 0.005, 0.043, 0.033, 0.029, 0.072, 0.116, 0.103, 0.19, 0.965, 0.887, 1.0, 1.0, 1.0, 1.0, 1.0, 1.0, 0.905, 0.795, 0.607, 0.458, 0.418, 0.257, 0.223, 0.146, 0.15, 0.084, 0.12, 0.066, 0.085, 0.037, 0.124, 0.048, 0.325, 0.269, 0.792, 0.709, 0.977, 0.911, 1.0, 0.886, 0.882, 0.656, 0.622, 0.353, 0.436, 0.166, 0.137, 0.07, 0.083, 0.034, 0.071, 0.004, 0.067, 0.012, 0.06, 0.0, 0.051, 0.01, 0.043, 0.009, 0.019, 0.0, 0.016, 0.008, 0.019, 0.006, 0.013, 0.003, 0.017, 0.003, 0.013, 0.0, 0.0, 0.0, 0.0, 0.0, 0.0, 0.002, 0.012, 0.019, 0.014, 0.017, 0.011, 0.025, 0.0, 0.015, 0.0, 0.0, 0.0, 0.012, 0.01, 0.004, 0.011, 0.0, 0.015, 0.008, 0.005, 0.0, 0.002, 0.011, 0.0, 0.015, 0.002, 0.003, 0.005, 0.007, 0.007, 0.0, 0.013, 0.004, 0.005, 0.023, 0.001, 0.023, 0.003, 0.044, 0.004, 0.091, 0.003, 0.076, 0.001, 0.071, 0.0, 0.046, 0.0, 0.03, 0.007, 0.047, 0.005, 0.04, 0.0, 0.038, 0.0, 0.02, 0.004, 0.044, 0.002, 0.027, 0.0, 0.008, 0.0, 0.016, 0.0, 0.0, 0.002, 0.0, 0.006, 0.011, 0.0, 0.032, 0.0, 0.041, 0.002, 0.054, 0.001, 0.044, 0.0, 0.031, 0.0, 0.037, 0.0, 0.014, 0.001, 0.036, 0.008, 0.037, 0.0, 0.034, 0.0, 0.049, 0.0, 0.021, 0.0, 0.019, 0.0, 0.003, 0.0, 0.004
